1;0;0.01;-0.01;-0.015;-0.015;-0.01;0.01;0.015;0.04;0.035;0.015;-0.01;-0.01;0.005;0;-0.02;-0.055;-0.085;-0.09;-0.06;-0.05;-0.045;-0.035;-0.05;-0.055;-0.05;-0.035;-0.005;-0.005;-0.01;-0.01;-0.01;0.01;0.005;0.02;0.025;0.025;0.025;0.01;0.035;0.05;0.065;0.07;0.07;0.045;-0.005;-0.03;-0.015;0.005;0.025;0.005;0;0.01;0.015;0;0.025;0.02;0.01;0.01;0.005;0.015;0.03;0.03;0.045;0.05;0.035;0.04;0.05;0.05;0.03;0.045;0.055;0.055;0.07;0.08;0.065;0.035;0.01;0.005;0.02;0.03;0.04;0.04;0.035;0.045;0.05;0.035;0.025;0.025;0.025;0.025;0.04;0.045;0.05;0.05;0.045;0.05;0.065;0.05;0.035;0.015;0.035;0.03;0.045;0.05;0.04;0.02;0.015;0.015;0.04;0.05;0.05;0.05;0.04;0.035;0.035;0.045;0.065;0.045;0.03;0.03;0.045;0.055;0.05;0.04;0.025;0.035;0.06;0.06;0.06;0.035;0.03;0.05;0.06;0.07;0.065;0.06;0.04;0.055;0.065;0.085;0.09;0.085;0.045;0.06;0.085;0.11;0.115;0.095;0.065;0.05;0.05;0.045;0.055;0.055;0.07;0.095;0.135;0.18;0.2;0.195;0.19;0.18;0.205;0.23;0.24;0.235;0.2;0.195;0.2;0.205;0.2;0.155;0.1;0.08;0.085;0.095;0.11;0.095;0.09;0.09;0.11;0.135;0.14;0.12;0.085;0.08;0.075;0.105;0.11;0.11;0.09;0.11;0.125;0.115;0.09;0.075;0.055;0.05;0.055;0.095;0.135;0.15;0.16;0.21;0.255;0.285;0.285;0.26;0.215;0.095;-0.01;-0.08;-0.11;-0.085;-0.085;-0.075;-0.06;-0.03;-0.035;-0.055;-0.045;-0.025;0.03;0.05;0.06;0.05;0.055;0.035;0.065;0.065;0.08;0.08;0.08;0.085;0.1;0.12;0.115;0.125;0.12;0.11;0.11;0.105;0.125;0.145;0.16;0.14;0.105;0.07;0.055;0.055;0.055;0.07;0.085;0.08;0.08;0.05;0.035;0.05;0.055;0.07;0.08;0.08;0.065;0.065;0.09;0.11;0.13;0.125;0.145;0.13;0.15;0.15;0.165;0.17;0.17;0.175;0.13;0.105;0.055;0.015;0.015;0.025;0.045;0.06;0.08;0.075;0.055;0.04;0.05;0.08;0.095;0.09;0.085;0.07;0.065;0.09;0.105;0.125;0.1;0.12;0.13;0.135;0.1;0.06;0.055;0.07;0.105;0.11;0.11;0.11;0.095;0.095;0.1;0.13;0.15;0.16;0.14;0.115;0.105;0.105;0.095;0.08;0.065;0.025;0.035;0.05;0.055;0.07;0.055;0.07;0.085;0.1;0.105;0.09;0.065;0.055;0.07;0.075;0.11;0.105;0.105;0.12;0.14;0.165;0.18;0.15;0.1;0.035;0.005;0.03;0.05;0.06;0.055;0.035;0.05;0.09;0.11;0.1;0.11;0.11;0.11;0.095;0.09;0.11;0.11;0.125;0.105;0.08;0.045;0.04;0.035;0.055;0.07;0.1;0.11;0.125;0.115;0.115;0.105;0.11;0.085;0.055;0.02;0.025;0.06;0.065;0.075;0.085;0.08;0.105;0.11;0.11;0.105;0.085;0.06;0.05;0.04;0.055;0.05;0.05;0.04;0.025;0.03;0.045;0.055;0.05;0.04;0.025;0.035;0.045;0.06;0.065;0.045;0.045;0.05;0.075;0.085;0.13;0.155;0.145;0.115;0.055;0.025;0.025;0.05;0.06;0.06;0.035;0.015;-0.005;-0.01;-0.025;-0.02;0;0.02;0.045;0.065;0.055;0.045;0.02;0;0.035;0.045;0.065;0.05;0.06;0.055;0.045;0.06;0.03;0.045;0.09;0.155;0.21;0.175;0.11;0.08;0.115;0.165;0.2;0.165;0.16;0.135;0.11;0.1;0.085;0.095;0.115;0.13;0.12;0.11;0.115;0.115;0.07;-0.02;-0.065;-0.07;-0.085;-0.085;-0.075;-0.06;-0.06;-0.035;-0.01;-0.02;-0.05;-0.07;-0.075;-0.06;-0.025;-0.005;0.025;0.055;0.115;0.225;0.32;0.365;0.3;0.185;0.085;0;-0.095;-0.19;-0.195;-0.155;-0.135;-0.18;-0.235;-0.25;-0.225;-0.18;-0.14;-0.105;-0.085;-0.075;-0.055;-0.025;-0.015;-0.02;-0.015;-0.04;-0.04;0.025;0.1;0.085;-0.01;-0.08;-0.1;-0.065;-0.04;-0.025;-0.01;0.005;-0.04;-0.04;0.005;0.05;0.045;-0.03;-0.095;-0.11;-0.06;-0.025;-0.035;-0.065;-0.08;-0.065;-0.045;-0.035;-0.02;0;-0.01;-0.01;0.005;0.02;0.025;0.025;0.01;-0.005;-0.02;-0.035;-0.035;-0.035;-0.03;0.005;0.03;0.08;0.07;0.01;-0.02;-0.015;0.035;0.065;0.045;-0.005;-0.055;-0.055;-0.02;0.005;0.025;-0.005;-0.055;-0.07;-0.045;0;0.07;0.095;0.075;0.065;0.045;0;-0.045;-0.055;-0.04;-0.05;-0.065;-0.03;-0.01;-0.02;-0.03;-0.015;0.02;0.07;0.075;0.075;0.07;0.065;0.025;-0.015;-0.04;-0.045;-0.03;-0.005;0.015;-0.025;-0.06;-0.075;-0.075;-0.035;0.01;0.045;0.05;0.03;-0.01;-0.03;0;-0.005;-0.005;0.01;0.055;0.14;0.17;0.105;-0.035;-0.15;-0.135;-0.065;-0.015;0;-0.005;-0.01;-0.01;0;0.03;0.035;0.01;0.015;0.015;0.025;0.04;0.05;0.045;0.04;0.03;0.04;0.04;0.035;0.015;0.015;0.02;0.025;0.04;0.045;0.05;0.04;0.02;0.035;0.045;0.045;0.045;0.015;0.02;0.035;0.045;0.045;0.015;0.02;0.055;0.09;0.08;0.025;-0.035;-0.05;-0.04;-0.02;0;0;0;0.02;0.055;0.055;0.04;0.005;-0.035;-0.055;-0.045;-0.025;0;0;0.005;-0.005;0;0.015;0.045;0.05;0.05;0.025;-0.015;-0.01;0.015;0.015;-0.02;-0.065;-0.045;-0.03;-0.01;0.005;-0.01;-0.005;0.03;0.045;0.065;0.08;0.065;0.025;0;0;0.02;0.06;0.06;0.05;0.055;0.085;0.105;0.13;0.13;0.125;0.13;0.14;0.125;0.12;0.095;0.06;0.035;0.005;0;0.01;-0.005;-0.02;-0.03;-0.02;0.01;0.02;0.01;0;0;0;0;0.015;0.025;0.04;0.065;0.075;0.045;0;-0.07;-0.11;-0.155;-0.145;-0.11;-0.075;-0.085;-0.08;-0.035;0.04;0.115;0.155;0.175;0.17;0.105;0.02;-0.07;-0.15;-0.205;-0.245;-0.255;-0.245;-0.175;-0.12;-0.095;-0.07;-0.06;-0.025;0.005;0;0;0;0.005;0.03;0.035;0.015;0;-0.01;0.005;0.015;0.02;0.005;-0.01;-0.015;-0.005;-0.01;-0.02;-0.03;-0.035;-0.015;-0.02;-0.01;0.02;0.02;0;-0.04;-0.06;-0.04;-0.015;0.01;0.025;0.02;0.02;0.035;0.055;0.045;-0.01;-0.05;-0.045;-0.03;0.02;0.045;0.05;0.055;0.04;0.03;0.03;0.035;0.03;0.015;-0.01;0.015;0.04;0.06;0.045;0.015;-0.02;-0.045;-0.02;0;0.015;-0.035;-0.035;-0.04;-0.02;-0.005;-0.01;-0.02;-0.025;0;0.03;0.045;0.04;0.02;0.015;0.04;0.075;0.1;0.085;0.06;0.045;0.07;0.08;0.085;0.105;0.11;0.09;0.015;-0.055;-0.085;-0.07;-0.045;-0.02;-0.01;0.015;0.03;0.025;0.015;0.02;0.04;0.055;0.06;0.055;0.06;0.05;0.07;0.105;0.125;0.14;0.16;0.145;0.115;0.095;0.125;0.13;0.11;0.07;0.05;0.015;-0.02;-0.05;-0.04;-0.025;0.005;0.005;0.005;-0.005;0.005;0.01;0.035;0.065;0.065;0.055;0.05;0.04;0.045;0.05;0.07;0.09;0.075;0.04;0.005;0.01;0.03;0.04;0.045;0.02;0;0.015;0.04;0.05;0.04;0.04;0.05;0.07;0.065;0.06;0.075;0.085;0.105;0.11;0.085;0.055;0.055;0.095;0.11;0.095;0.02;-0.03;-0.04;-0.01;0.01;0.005;0;-0.01;-0.005;-0.005;0.005;0.03;0.035;0.02;0.025;0.025;0.03;0.05;0.075;0.085;0.095;0.105;0.11;0.09;0.05;0.02;-0.005;-0.005;0.015;0.045;0.055;0.045;0;-0.005;0.055;0.1;0.1;0.075;0.055;0.035;0.005;-0.025;-0.025;-0.03;-0.03;0.005;0.05;0.105;0.165;0.195;0.2;0.2;0.21;0.23;0.245;0.235;0.205;0.205;0.24;0.265;0.235;0.14;0.005;-0.095;-0.11;-0.06;-0.025;-0.025;-0.05;-0.06;-0.05;-0.025;-0.02;-0.015;-0.025;-0.02;0.005;0.055;0.095;0.11;0.065;0.01;-0.005;0.005;0.04;-0.005;-0.1;-0.17;-0.155;-0.08;-0.03;-0.02;-0.035;-0.005;0.06;0.105;0.14;0.16;0.15;0.075;-0.01;-0.09;-0.14;-0.19;-0.22;-0.255;-0.23;-0.16;-0.095;-0.07;-0.045;-0.025;-0.005;0.005;0.03;0.04;0.04;0.045;0.045;0.02;-0.005;0;0;0;0.015;0.02;0.02;0.025;0.035;0.06;0.04;-0.02;-0.065;-0.08;-0.065;-0.04;-0.04;-0.005;0.02;0.02;0.015;0.02;0.025;0.055;0.085;0.12;0.12;0.1;0.115;0.17;0.17;0.045;-0.125;-0.205;-0.165;-0.065;-0.04;-0.06;-0.095;-0.095;-0.065;-0.045;-0.02;0.005;0.02;0.025;0.065;0.08;0.065;0.005;-0.05;-0.05;-0.02;0;-0.005;-0.04;-0.045;-0.05;-0.035;-0.005;0;0;-0.02;-0.035;-0.015;-0.01;0.01;0.005;0;0.005;0.01;0.04;0.04;0.035;0.02;0.015;0.035;0.05;0.05;0.04;0.035;0.025;0.04;0.05;0.065;0.07;0.05;0.045;0.06;0.07;0.075;0.085;0.075;0.07;0.105;0.16;0.165;0.1;0.015;-0.05;-0.04;0.025;0.085;0.1;0.055;0.025;0;0.015;0.025;0.025;0.015;0.02;0.045;0.095;0.125;0.115;0.055;0.01;0.01;0.02;0.055;0.055;0.05;0.06;0.09;0.1;0.085;0.055;0.065;0.1;0.13;0.09;0.035;-0.01;-0.025;0.02;0.095;0.13;0.095;0.015;-0.055;-0.075;-0.065;-0.035;-0.01;0.01;0.005;0;0.01;0.025;0.04;0.06;0.055;0.065;0.065;0.045;0.04;0.025;0.005;-0.005;0.015;0.025;0.035;0.02;0.01;0.055;0.125;0.15;0.12;0.085;0.065;0.06;0.005;-0.06;-0.08;-0.07;-0.055;-0.045;-0.04;-0.025;-0.005;0;0.015;0;-0.005;-0.005;-0.01;-0.04;-0.035;0;0.035;0.05;0.03;-0.025;-0.07;-0.08;-0.06;-0.02;0;0.01;0;0;0.015;0.045;0.075;0.085;0.07;0.055;0.08;0.125;0.175;0.185;0.185;0.16;0.185;0.19;0.22;0.23;0.235;0.21;0.195;0.17;0.16;0.155;0.14;0.12;0.095;0.085;0.075;0.055;0.045;0.05;0.035;0.01;0.005;-0.015;-0.01;-0.02;-0.015;-0.005;0.01;0.015;-0.005;-0.01;0.005;0.015;0.03;0.02;0.005;-0.005;0;0;-0.01;0;0.015;0.035;0.045;0.065;0.06;0.095;0.13;0.15;0.165;0.21;0.26;0.27;0.285;0.28;0.23;0.09;-0.115;-0.3;-0.385;-0.375;-0.275;-0.185;-0.115;-0.065;-0.055;-0.055;-0.03;-0.02;0.02;0.055;0.11;0.245;0.48;0.61;0.475;0.08;-0.29;-0.425;-0.32;-0.185;-0.125;-0.105;-0.11;-0.11;-0.08;-0.055;-0.03;-0.025;-0.025;-0.03;0;0.03;0.06;0.105;0.125;0.155;0.16;0.185;0.18;0.115;-0.01;-0.12;-0.16;-0.125;-0.085;-0.085;-0.085;-0.07;-0.06;-0.02;0;-0.005;0;0.015;0.05;0.1;0.125;0.105;0.055;-0.015;-0.04;-0.025;0.02;0.04;0.055;0.065;0.08;0.065;0.07;0.055;0;-0.075;-0.105;-0.055;0.015;0.07;0.1;0.075;0.03;-0.06;-0.1;-0.115;-0.095;-0.055;-0.025;0.005;0.025;0.035;0.035;0.02;-0.005;-0.015;-0.02;-0.02;-0.04;-0.025;0;0.01;0.025;0.015;0;0.03;0.09;0.18;0.245;0.255;0.16;0.04;-0.035;-0.065;-0.065;-0.045;-0.04;-0.01;0.005;0.045;0.075;0.085;0.075;0.075;0.125;0.18;0.2;0.185;0.145;0.09;0.04;0.02;0.04;0.055;0.02;-0.03;-0.055;-0.06;-0.035;-0.005;0.005;0.01;0.03;0.07;0.105;0.08;0.035;-0.03;-0.07;-0.075;-0.05;-0.065;-0.065;-0.04;-0.02;0.02;0.035;0.03;0.01;0.04;0.07;0.105;0.15;0.155;0.145;0.12;0.115;0.075;0.05;0.055;0.06;0.025;0.02;0;-0.005;-0.02;-0.005;0;0.015;0.035;0.05;0.055;0.05;0.045;0.07;0.095;0.105;0.08;0.085;0.105;0.14;0.185;0.23;0.21;0.125;0.005;-0.04;-0.015;0.07;0.135;0.12;0.08;0.08;0.13;0.185;0.18;0.125;0.035;0.02;0.07;0.145;0.135;0.115;0.085;0.065;0.02;-0.045;-0.09;-0.08;-0.055;-0.03;0.005;0.04;0.06;0.075;0.1;0.16;0.25;0.315;0.29;0.22;0.205;0.21;0.23;0.23;0.21;0.235;0.345;0.48;0.475;0.305;0.12;0.015;0.025;0.03;0.025;0.015;0.015;0;0.02;0.07;0.165;0.28;0.31;0.21;-0.01;-0.135;-0.115;0.045;0.225;0.325;0.245;0.09;-0.045;-0.13;-0.155;-0.095;0.005;0.135;0.225;0.235;0.135;-0.02;-0.14;-0.1;0.02;0.135;0.14;0.025;-0.12;-0.165;-0.085;0.06;0.18;0.265;0.335;0.38;0.37;0.33;0.285;0.2;0.03;-0.13;-0.135;-0.05;-0.02;-0.19;-0.395;-0.47;-0.38;-0.245;-0.145;-0.1;-0.07;-0.02;0.035;0.085;0.125;0.165;0.19;0.155;0.06;-0.01;-0.015;-0.045;-0.1;-0.115;-0.065;0.01;0.045;-0.015;-0.145;-0.2;-0.16;-0.075;-0.045;-0.025;-0.005;0.085;0.185;0.22;0.15;0.015;-0.11;-0.15;-0.145;-0.1;-0.06;-0.045;-0.045;-0.025;0.02;0.075;0.11;0.08;0.075;0.125;0.205;0.24;0.24;0.3;0.385;0.37;0.185;-0.125;-0.39;-0.46;-0.34;-0.15;0.015;0.135;0.11;0.01;-0.015;0.085;0.17;0.125;-0.04;-0.21;-0.225;-0.08;0.11;0.16;-0.025;-0.265;-0.355;-0.26;-0.085;0.14;0.33;0.36;0.09;-0.28;-0.47;-0.425;-0.285;-0.225;-0.195;-0.165;-0.135;-0.085;-0.065;-0.045;-0.07;-0.095;-0.095;-0.065;-0.05;-0.045;-0.045;-0.06;-0.02;0.06;0.11;0.165;0.23;0.23;0.2;0.12;0.065;0.05;0.025;-0.01;-0.06;-0.07;-0.115;-0.215;-0.29;-0.275;-0.185;-0.1;-0.07;-0.08;-0.07;-0.035;-0.005;0.03;0.05;0.03;0.01;0.005;0;0;0;0.015;0.025;0.065;0.12;0.13;0.07;0.025;0.03;0.08;0.125;0.235;0.35;0.32;0.135;-0.065;-0.165;-0.155;-0.12;-0.1;-0.11;-0.1;-0.085;-0.06;-0.02;0.025;0.08;0.125;0.12;0.09;0.035;0.02;0.07;0.175;0.225;0.14;0.065;-0.02;-0.1;-0.16;-0.175;-0.17;-0.175;-0.14;-0.11;-0.07;-0.04;-0.005;-0.005;0;0.02;0.045;0.075;0.08;0.05;0.035;0.02;0.02;0.03;0.05;0.095;0.16;0.215;0.215;0.18;0.165;0.145;0.09;-0.045;-0.125;-0.135;-0.12;-0.1;-0.09;-0.065;-0.03;0.02;0.05;0.065;0.055;0.05;0.09;0.15;0.245;0.35;0.365;0.255;0.08;0;0.085;0.215;0.255;0.225;0.215;0.195;0.15;0.065;0.02;0.035;0.065;0.085;0.065;0.07;0.085;0.14;0.18;0.21;0.215;0.125;-0.025;-0.095;-0.08;-0.03;-0.005;-0.02;-0.02;-0.02;0.015;0.07;0.1;0.09;0.03;-0.02;-0.035;-0.01;-0.005;-0.05;-0.04;0;0.03;0.07;0.15;0.285;0.405;0.38;0.29;0.195;0.205;0.2;0.18;0.105;0.035;-0.04;-0.12;-0.175;-0.2;-0.17;-0.09;-0.02;0.01;0.01;0.015;0.025;0.035;0.06;0.065;0.065;0.07;0.07;0.095;0.085;0.07;0.055;0.075;0.115;0.17;0.215;0.245;0.24;0.19;0.075;-0.045;-0.11;-0.08;-0.04;-0.03;-0.02;0.005;0.025;0.06;0.04;0.045;0.065;0.095;0.12;0.13;0.105;0.115;0.175;0.265;0.37;0.375;0.275;0.085;-0.115;-0.18;-0.125;-0.045;-0.01;-0.005;-0.01;0.015;0.04;0.06;0.06;0.06;0.055;0.065;0.08;0.09;0.09;0.075;0.06;0.075;0.075;0.095;0.095;0.07;0.055;0.065;0.08;0.08;0.075;0.06;0.05;0.055;0.075;0.085;0.075;0.07;0.08;0.075;0.075;0.075;0.05;0.025;0.03;0.055;0.07;0.085;0.07;0.07;0.07;0.065;0.08;0.09;0.075;0.065;0.05;0.065;0.085;0.1;0.095;0.085;0.085;0.1;0.125;0.14;0.18;0.23;0.255;0.245;0.22;0.175;0.095;-0.01;-0.085;-0.065;-0.005;0.055;0.07;0.055;0.015;0;0.005;0.02;0.03;0.035;0.035;0.06;0.08;0.095;0.125;0.145;0.195;0.235;0.195;0.115;0.03;-0.005;0.015;0.035;0.06;0.07;0.08;0.085;0.1;0.145;0.2;0.22;0.15;0.065;0.03;0.06;0.09;0.1;0.11;0.125;0.155;0.175;0.19;0.14;0.055;-0.02;-0.035;0.02;0.065;0.08;0.065;0.075;0.105;0.17;0.205;0.175;0.1;0.04;0.03;0.055;0.085;0.115;0.095;0.035;-0.01;-0.015;0.02;0.055;0.06;0.05;0.045;0.06;0.075;0.075;0.085;0.08;0.07;0.09;0.105;0.14;0.16;0.195;0.295;0.39;0.45;0.425;0.365;0.335;0.335;0.3;0.17;0.03;-0.045;0.025;0.105;0.12;0.105;0.1;0.115;0.125;0.115;0.11;0.115;0.175;0.28;0.345;0.255
2;0;-0.085;-0.07;-0.05;-0.06;-0.065;-0.065;-0.055;-0.025;0;0.005;-0.02;-0.07;-0.105;-0.1;-0.06;-0.025;-0.02;-0.02;-0.03;-0.04;-0.04;-0.06;-0.08;-0.105;-0.11;-0.1;-0.075;-0.06;-0.055;-0.05;-0.03;0.005;0.065;0.105;0.12;0.11;0.09;0.095;0.095;0.085;0.085;0.07;0.08;0.085;0.095;0.09;0.085;0.09;0.07;0.05;0.005;-0.075;-0.135;-0.145;-0.115;-0.065;-0.045;-0.045;-0.045;-0.065;-0.065;-0.06;-0.035;-0.04;-0.03;-0.015;0.01;0.035;0.04;0.015;-0.015;-0.055;-0.075;-0.075;-0.08;-0.095;-0.13;-0.155;-0.145;-0.11;-0.075;-0.075;-0.045;0;0.065;0.14;0.2;0.235;0.24;0.18;0.1;0.03;-0.05;-0.125;-0.21;-0.275;-0.305;-0.285;-0.22;-0.175;-0.14;-0.095;-0.04;-0.01;-0.015;-0.075;-0.12;-0.155;-0.135;-0.095;-0.075;-0.06;-0.065;-0.08;-0.06;-0.04;-0.02;-0.005;-0.015;-0.045;-0.035;-0.02;-0.005;-0.02;-0.02;-0.02;-0.035;-0.025;-0.035;-0.045;-0.055;-0.065;-0.05;-0.055;-0.04;-0.025;-0.035;-0.025;-0.025;-0.005;0;0;0;-0.01;-0.005;0.03;0.06;0.065;0.07;0.08;0.085;0.075;0.08;0.07;0.09;0.12;0.155;0.145;0.08;0.02;-0.025;-0.02;-0.005;0.05;0.06;0.005;-0.06;-0.105;-0.125;-0.135;-0.13;-0.12;-0.115;-0.11;-0.105;-0.085;-0.055;-0.06;-0.07;-0.065;-0.07;-0.045;-0.03;-0.015;-0.025;-0.045;-0.03;-0.01;0.005;0.02;0.01;-0.005;-0.005;0.005;0.035;0.04;0.02;0.015;0.025;0.035;0.06;0.045;0.045;0.035;0.035;0.04;0.065;0.05;0.05;0.02;0.02;0.035;0.04;0.045;0.035;0.015;0.02;0.05;0.065;0.04;0.03;0.02;0.025;0.035;0.06;0.07;0.08;0.075;0.065;0.065;0.09;0.1;0.12;0.095;0.065;0.07;0.07;0.06;0.045;0.03;0.03;0.005;-0.005;0.01;0.015;0.035;0.055;0.065;0.09;0.095;0.11;0.12;0.16;0.16;0.14;0.09;0.035;0.005;0.035;0.055;0.05;0.015;-0.005;-0.005;0;0.025;0.03;0.02;-0.01;-0.01;-0.005;0.015;0.03;0.035;0.035;0.05;0.07;0.05;0.005;-0.02;-0.015;0.01;0;-0.005;-0.005;0;0;-0.005;-0.005;0.02;0.025;0.03;0.01;-0.01;-0.015;0.015;0.035;0.045;0.03;0.015;-0.005;-0.01;0;0.015;0.015;0;-0.01;-0.005;0.02;0.02;0.025;0.035;0.015;-0.005;-0.03;-0.035;-0.035;-0.025;-0.015;0.01;0.02;0.04;0.02;0.02;0.015;0.04;0.07;0.07;0.04;0.02;0.02;0.015;0.01;0.025;0.025;0.005;-0.04;-0.05;-0.02;-0.015;-0.04;-0.05;-0.04;-0.025;-0.005;-0.005;-0.005;-0.015;-0.005;0.015;0.025;0.02;0;-0.01;0;0.02;0.035;0.035;0.02;0.005;0;0.03;0.045;0.05;0.04;0.02;0.025;0.04;0.06;0.045;0.04;0.02;0.035;0.045;0.05;0.065;0.045;0.04;0.06;0.1;0.14;0.12;0.075;0.035;0.02;0;-0.01;0;0.025;0.01;-0.005;-0.015;-0.01;0.005;0.03;0.035;0.035;0.06;0.085;0.095;0.1;0.09;0.095;0.115;0.11;0.105;0.08;0.04;0.035;0.035;0.04;0.045;0.035;0.01;0.015;0.015;0.01;0.025;0.015;0.04;0.045;0.045;0.03;0.015;-0.015;-0.02;0.005;0.05;0.08;0.075;0.03;-0.01;-0.035;-0.035;-0.015;-0.02;-0.03;-0.02;-0.005;-0.02;-0.04;-0.05;-0.005;0.055;0.14;0.23;0.305;0.335;0.295;0.19;0.075;-0.02;-0.11;-0.18;-0.245;-0.285;-0.255;-0.21;-0.125;-0.06;0.005;0.03;0.03;0.01;-0.02;-0.06;-0.065;-0.045;-0.06;-0.05;-0.04;-0.015;-0.025;-0.02;-0.01;0.005;0.025;0.08;0.11;0.085;0.055;-0.01;-0.06;-0.065;-0.055;-0.045;-0.03;-0.005;0.005;-0.01;-0.01;-0.01;-0.01;0.005;0.025;0.025;0.02;0.02;0.005;0.005;0.01;0.02;0.01;-0.01;-0.005;0.005;0.025;0.025;0.02;0;0.005;0.03;0.045;0.05;0.03;0.005;0.005;0;0.01;0.01;0.005;0.005;0;-0.005;0.02;0.01;0.015;0.005;-0.005;-0.005;0.005;-0.02;-0.025;-0.06;-0.04;-0.02;-0.005;-0.005;-0.01;-0.03;-0.01;0.015;0.055;0.045;0.02;-0.02;-0.04;-0.025;-0.01;-0.015;-0.02;-0.035;-0.03;-0.015;0;-0.005;0;-0.025;-0.02;-0.025;0.01;0.03;0.03;0.01;0.03;0.05;0.05;0.025;-0.005;-0.05;-0.055;-0.045;-0.02;-0.02;-0.015;-0.03;-0.025;-0.01;0.01;0.005;0;-0.02;-0.03;-0.015;0.025;0.06;0.07;0.045;0;-0.035;-0.045;-0.03;-0.02;-0.01;-0.02;-0.005;0.005;0.02;0.015;-0.005;0.01;0.03;0.045;0.045;0.02;0;0.005;0.025;0.025;0.035;0.04;0.035;0.05;0.08;0.125;0.16;0.15;0.075;0.005;-0.03;-0.025;-0.025;0;0.005;0;0.01;0.025;0.02;0.035;0.06;0.07;0.08;0.085;0.065;0.025;0.01;-0.025;-0.04;-0.035;-0.03;-0.015;-0.035;-0.03;-0.03;-0.01;0;0;0.015;0.025;0.045;0.075;0.075;0.065;-0.005;-0.02;-0.02;-0.02;-0.01;-0.025;-0.025;-0.005;0.01;0.03;0.015;0.025;0.03;0.045;0.04;0.02;-0.01;-0.01;-0.035;-0.045;-0.05;-0.035;-0.03;-0.04;-0.03;-0.03;-0.015;0.01;0.01;0.01;0.02;0.055;0.09;0.105;0.05;-0.025;-0.06;-0.05;-0.045;-0.005;-0.015;-0.01;-0.02;-0.005;0.01;0.015;0.025;0.04;0.065;0.095;0.09;0.07;0.015;-0.015;-0.035;-0.02;0.015;0.01;-0.01;-0.015;-0.01;0;0.01;0.015;0.025;0.045;0.055;0.06;0.04;0.025;-0.035;-0.065;-0.045;-0.04;-0.025;-0.015;-0.005;-0.01;-0.005;-0.005;0.005;0.02;0.03;0.035;0.03;0.03;0.025;0.045;0.06;0.055;0.045;0.075;0.11;0.13;0.13;0.05;-0.01;-0.04;-0.055;-0.015;-0.005;0.015;0.01;0;-0.01;-0.025;-0.01;-0.035;-0.035;-0.035;-0.01;0.01;0.01;-0.005;-0.015;-0.02;0.005;0;0.005;0;-0.015;-0.015;-0.005;0;-0.01;-0.035;-0.06;-0.065;-0.07;-0.04;-0.015;-0.03;-0.03;0.005;0.09;0.175;0.215;0.265;0.28;0.28;0.235;0.155;0.055;-0.05;-0.145;-0.21;-0.22;-0.18;-0.135;-0.105;-0.095;-0.08;-0.06;-0.025;-0.03;-0.045;-0.06;-0.06;-0.03;0;0;-0.015;-0.045;-0.05;-0.02;-0.005;-0.005;0.015;0.02;0.05;0.06;0.055;0.015;-0.035;-0.05;-0.04;-0.02;-0.01;-0.03;-0.035;-0.03;-0.015;0;0.01;0.025;0.04;0.03;0.025;0.035;0.045;0.02;-0.025;-0.055;-0.045;-0.065;-0.06;-0.06;-0.06;-0.055;-0.035;-0.005;0.005;0;-0.015;-0.03;-0.035;-0.01;-0.005;-0.01;0;-0.01;0.015;0.045;0.05;0;-0.075;-0.13;-0.125;-0.105;-0.07;-0.065;-0.09;-0.09;-0.085;-0.065;-0.04;-0.045;-0.05;-0.065;-0.06;-0.05;-0.02;-0.015;0.015;0.035;0.035;0.02;-0.01;-0.03;-0.055;-0.07;-0.08;-0.095;-0.1;-0.1;-0.08;-0.055;-0.03;-0.02;-0.06;-0.12;-0.13;-0.13;-0.125;-0.1;-0.08;-0.085;-0.075;-0.07;-0.075;-0.05;-0.035;-0.04;-0.045;-0.05;-0.045;-0.035;-0.02;-0.015;-0.01;-0.005;-0.005;0;-0.01;-0.03;-0.02;-0.04;-0.03;0;0.025;0.04;0.015;-0.005;-0.02;-0.01;-0.005;0.005;-0.005;0;0.01;0.02;0.015;0.015;0.01;0.01;0.03;0.055;0.065;0.04;0.025;0;0.02;0.025;0.045;0.05;0.05;0.03;0.015;0.025;0.02;-0.005;-0.03;-0.035;0.005;0.035;0.04;0;-0.045;-0.08;-0.045;0;0.02;0.02;0.005;-0.01;-0.02;-0.03;-0.03;-0.035;-0.035;-0.035;0;0.06;0.09;0.08;0.055;0.03;-0.015;-0.06;-0.075;-0.065;-0.03;-0.03;-0.035;-0.04;-0.04;-0.035;-0.035;-0.045;-0.035;-0.025;0.01;-0.01;-0.035;-0.04;-0.025;0;0.035;0.02;-0.005;-0.015;-0.03;-0.02;0;0.005;0.01;0;0.005;0.01;0.015;0.005;0;0.01;-0.015;-0.04;-0.005;0.015;0.02;0.02;0.005;-0.02;-0.035;-0.05;-0.04;-0.035;-0.03;-0.025;-0.01;-0.01;-0.01;-0.02;-0.02;0;0.015;0.02;0.015;0.015;0.035;0.065;0.09;0.095;0.055;0.01;-0.01;-0.02;0.035;0.06;0.06;0.03;-0.01;-0.02;-0.035;-0.01;-0.01;-0.02;-0.01;-0.005;0.015;0.015;0.015;-0.01;0;0.025;0.04;0.055;0.06;0.065;0.045;0.04;0.045;0.04;0.015;-0.015;-0.03;-0.005;0.01;0.01;0.015;0.02;0.05;0.06;0.045;0.035;-0.005;0;0.01;0.03;0.05;0.04;0.01;-0.025;-0.075;-0.08;-0.04;0;0.015;0.045;0.04;0.04;0.02;0.015;0.015;0.03;0.015;-0.01;-0.055;-0.04;-0.01;0.005;0.015;0.015;-0.015;-0.05;-0.08;-0.07;-0.05;0;0.015;-0.01;-0.025;0.01;0.1;0.205;0.29;0.335;0.315;0.235;0.145;0.07;-0.015;-0.105;-0.22;-0.28;-0.275;-0.195;-0.115;-0.045;-0.005;0.01;0.005;-0.005;0.015;0.05;0.05;0.025;0.005;0.005;0.01;0.015;0.025;0.02;0.015;0.04;0.06;0.09;0.075;0.005;-0.045;-0.04;-0.005;0.025;0.02;0.025;0.025;0.03;0.025;0.04;0.055;0.055;0.045;0.035;0.035;0.045;0.055;0.07;0.07;0.07;0.055;0.045;0.035;0.025;0.03;0.035;0.025;0.01;0.02;0.03;0.045;0.045;0.025;-0.005;-0.005;0;0.005;0.005;0;0.01;0.01;0.01;0.02;0.03;0.065;0.07;0.065;0.04;0.02;0.02;0.03;0.035;-0.005;-0.04;-0.055;-0.055;-0.025;-0.01;-0.025;-0.065;-0.08;-0.065;-0.05;-0.03;-0.025;-0.03;-0.02;0.005;0.02;0.015;-0.02;-0.04;-0.025;-0.005;0.03;0.02;0.035;0.04;0.065;0.08;0.075;0.045;0.02;0.005;0.005;0.01;0.03;0.04;0.025;0.02;0.01;0.015;0.035;0.045;0.04;0.02;0.015;0.025;0.055;0.065;0.05;0.015;-0.005;-0.015;0.005;0.015;0.025;0.01;0.03;0.035;0.035;0.025;0;-0.02;-0.005;0.01;0.035;0.055;0.04;0.04;0.045;0.065;0.075;0.075;0.06;0.04;0.045;0.035;0.05;0.065;0.085;0.09;0.07;0.05;0.06;0.05;0.015;-0.015;-0.005;0.035;0.06;0.055;0.03;-0.005;0;0.015;0.035;0.035;0.02;0.02;0.04;0.065;0.085;0.04;-0.015;-0.055;-0.025;0.02;0.05;0.045;0.045;0.035;0.035;0.06;0.065;0.05;0.03;0.015;0.03;0.045;0.06;0.045;0.02;0.015;0.005;0.005;0.03;0.03;0.015;-0.005;-0.02;-0.015;0;0;0;-0.005;0.015;0.03;0.045;0.07;0.07;0.055;0.02;0.005;0.005;0.03;0.035;0;0;0;0.02;0.035;0.035;0.035;0.04;0.06;0.09;0.08;0.05;0.015;-0.01;0;0.01;0.045;0.03;0.02;0;0.01;0.04;0.035;0.025;0.005;0.035;0.045;0.04;0.02;0.01;0.025;0.04;0.065;0.08;0.07;0.065;0.02;0.035;0.055;0.075;0.08;0.08;0.07;0.04;0;-0.025;-0.01;0.005;0.01;0.01;0.015;0.025;0.04;0.035;0.01;0.02;0.03;0.065;0.085;0.1;0.075;0.02;-0.025;-0.03;0.005;0.02;0.035;0.06;0.07;0.095;0.1;0.075;0.065;0.065;0.11;0.13;0.105;0.065;0.03;0.035;0.05;0.065;0.06;0.02;-0.015;0;0.04;0.055;0.02;0;0;0.035;0.045;0.04;0.015;0.005;-0.005;-0.005;0.03;0.065;0.075;0.065;0.045;0.035;0.045;0.06;0.03;0.03;0.025;0.04;0.045;0.05;0.02;-0.045;-0.065;-0.065;-0.05;0.01;0.11;0.225;0.27;0.305;0.345;0.365;0.33;0.275;0.19;0.115;0.02;-0.04;-0.12;-0.18;-0.19;-0.135;-0.08;-0.035;0.01;0.04;0.045;0.035;0.035;0.04;0.035;0.055;0.08;0.105;0.145;0.125;0.095;0.04;0.02;0.005;0.02;0.04;0.045;0.035;0.03;0.035;0.06;0.08;0.085;0.09;0.07;0.065;0.07;0.085;0.1;0.09;0.085;0.09;0.08;0.065;0.07;0.06;0.065;0.06;0.07;0.085;0.065;0.035;0.035;0.04;0.06;0.085;0.1;0.125;0.115;0.12;0.11;0.085;0.02;-0.01;-0.035;-0.02;0.02;0.025;0.035;0.04;0.025;0.02;0.03;0.05;0.05;0.03;0.005;0.015;0.035;0.035;0.04;0.03;0.015;0.03;0.04;0.045;0.05;0.025;-0.005;-0.01;0;0;0.01;0.015;0;0.01;0.025;0.03;0.045;0.045;0.07;0.09;0.08;0.03;-0.015;0;0.035;0.07;0.06;0.03;0;-0.025;-0.045;-0.045;-0.025;0.005;0.01;0.005;0.015;0.02;0.015;0.035;0.035;0.035;0.025;0.025;0.05;0.075;0.065;0.05;0.03;0.015;0.02;0.05;0.085;0.095;0.06;0.05;0.045;0.065;0.055;0.025;0;0;0.03;0.055;0.065;0.05;0.035;0.04;0.065;0.095;0.125;0.13;0.095;0.06;0.04;0.04;0.04;0.06;0.045;0.045;0.045;0.055;0.055;0.035;0.01;0.015;0.04;0.07;0.07;0.06;0.055;0.06;0.075;0.095;0.085;0.06;0.035;0.04;0.045;0.05;0.035;0.03;0.03;0.04;0.06;0.085;0.085;0.07;0.07;0.07;0.075;0.08;0.085;0.075;0.065;0.045;0.03;0.045;0.075;0.09;0.085;0.09;0.055;0.035;0.025;0.035;0.035;0.03;0.035;0.05;0.04;0.025;0.005;-0.005;0.025;0.045;0.055;0.035;0.025;0.025;0.045;0.06;0.075;0.065;0.035;0.025;0.035;0.055;0.06;0.07;0.065;0.06;0.07;0.09;0.09;0.085;0.07;0.055;0.055;0.08;0.095;0.11;0.1;0.11;0.105;0.09;0.05;0.005;-0.02;-0.03;-0.015;-0.005;0.015;0.025;0.02;0.045;0.055;0.06;0.04;0.01;-0.005;0.005;0.01;0.03;0.035;0.035;0.025;0.03;0.04;0.06;0.065;0.055;0.06;0.05;0.06;0.075;0.075;0.075;0.055;0.055;0.07;0.095;0.115;0.155;0.185;0.185;0.12;0.045;-0.025;-0.03;-0.01;0.005;0.035;0.045;0.05;0.045;0.06;0.055;0.09;0.115;0.13;0.135;0.1;0.075;0.075;0.085;0.095;0.075;0.035;0.005;0;0.01;0.005;0.01;0.01;0.035;0.09;0.12;0.105;0.065;0.045;0.035;0.05;0.05;0.04;0.035;0.025;0.035;0.025;0.045;0.045;0.04;0.035;0.035;0.07;0.11;0.145;0.16;0.13;0.065;-0.01;-0.02;-0.025;-0.045;-0.065;-0.08;-0.045;-0.03;-0.04;-0.03;0.025;0.12;0.23;0.325;0.42;0.505;0.515;0.465;0.37;0.185;0.01;-0.115;-0.2;-0.255;-0.245;-0.19;-0.12;-0.07;-0.045;-0.005;0.035;0.065;0.05;0.04;0.04;0.07;0.1;0.135;0.11;0.06;0.015;0.01;0.025;0.03;0.025;0.035;0.035;0.05;0.075;0.085;0.09;0.07;0.05;0.05;0.06;0.07;0.08;0.085;0.07;0.065;0.05;0.035;0.035;0.035;0.015;0.04;0.07;0.07;0.075;0.045;0.015;0.035;0.055;0.065;0.05;0.01;-0.025;-0.005;0;0.035;0.045;0.035;0.01;0;0.02;0.055;0.065;0.05;0.035;0.04;0.055;0.07;0.04;-0.015;-0.04;-0.01;0;0;-0.025;-0.04;-0.045;-0.03;-0.015;-0.005;-0.015;-0.035;-0.06;-0.06;-0.04;-0.035;-0.03;-0.035;-0.055;-0.06;-0.05;-0.03;-0.04;-0.04;-0.05;-0.055;-0.04;-0.03;-0.025;-0.03;-0.04;-0.035;-0.025;-0.02;0;-0.015;-0.015;-0.02;-0.005;-0.005;0;-0.005;-0.005;-0.005;0.015;0.035;0.04;0.035;0.03;0.025;0.01;0.01;0;-0.005;-0.025;-0.025;0;0.02;0.005;0;-0.015;-0.02;-0.01;0;0.005;-0.015;-0.02;-0.015;-0.01;0.02;0.025;0.035;0.02;0.005;-0.025;-0.005;-0.005;0;-0.005;-0.005;0.01;0.03;0.025;-0.015;-0.02;-0.025;-0.005;0.015;0.025;0.03;0.03;0.025;0.03;0.035;0.03;0.02;0.01;0.015;0.04;0.065;0.08;0.055;0.03;0.02;0.015;0.015;0.025;0.015;0.01;0;0;0.02;0.03;0.015;0.015;0.005;0.015;0.035;0.04;0.025;0.005;-0.03;-0.05;-0.03;-0.015;-0.01;-0.015;-0.015;-0.005;0.015;0.02;0.015;-0.005;-0.01;0.005;0.02;0.01;0.03;0.025;0.03;0.03;0.02;-0.005;-0.04;-0.025;-0.025;0;0.005;0.015;-0.005;-0.01;-0.03;-0.01;0.02;0.045;0.025;-0.005;-0.03;-0.025;-0.005;0;-0.015;-0.03;-0.025;0.005;0.01;-0.01;-0.015;-0.015;-0.025;-0.01;0.01;0.02;0.01;0.015;0.01;0.045;0.06;0.07;0.06;0.045;0.03;0.03;0.055;0.055;0.025;-0.015;-0.035;-0.01;0.005;-0.015;-0.025;-0.02;-0.025;-0.01;0.005;-0.005;0.01;-0.01;-0.01;0;0.01;0.01;0.005;0;0.005;0.02;0.045;0.035;0.025;-0.005;-0.005;0.005;0.02;0.03;0.025;0.01;0.025;0.065;0.135;0.19;0.16;0.075;-0.035;-0.095;-0.055;0.005;0.015;0.005
5;0;-0.615;-0.6;-0.59;-0.58;-0.585;-0.57;-0.55;-0.575;-0.575;-0.6;-0.6;-0.6;-0.61;-0.63;-0.615;-0.595;-0.6;-0.6;-0.575;-0.585;-0.59;-0.585;-0.6;-0.61;-0.615;-0.61;-0.6;-0.59;-0.585;-0.59;-0.565;-0.57;-0.585;-0.59;-0.605;-0.61;-0.635;-0.625;-0.61;-0.625;-0.62;-0.605;-0.59;-0.6;-0.6;-0.605;-0.6;-0.61;-0.61;-0.61;-0.625;-0.61;-0.59;-0.6;-0.58;-0.59;-0.59;-0.6;-0.61;-0.63;-0.615;-0.635;-0.625;-0.61;-0.605;-0.595;-0.565;-0.585;-0.58;-0.58;-0.585;-0.62;-0.61;-0.62;-0.615;-0.615;-0.6;-0.59;-0.595;-0.575;-0.595;-0.61;-0.61;-0.62;-0.635;-0.645;-0.645;-0.62;-0.615;-0.595;-0.595;-0.595;-0.6;-0.585;-0.615;-0.61;-0.61;-0.61;-0.62;-0.615;-0.605;-0.59;-0.59;-0.6;-0.6;-0.605;-0.635;-0.63;-0.64;-0.64;-0.635;-0.61;-0.615;-0.61;-0.595;-0.575;-0.59;-0.59;-0.59;-0.595;-0.59;-0.595;-0.6;-0.565;-0.555;-0.54;-0.515;-0.515;-0.51;-0.52;-0.525;-0.535;-0.54;-0.525;-0.55;-0.535;-0.535;-0.54;-0.545;-0.585;-0.59;-0.605;-0.62;-0.635;-0.63;-0.635;-0.635;-0.635;-0.635;-0.63;-0.605;-0.62;-0.615;-0.63;-0.655;-0.675;-0.68;-0.69;-0.68;-0.675;-0.67;-0.645;-0.635;-0.635;-0.625;-0.66;-0.66;-0.665;-0.665;-0.665;-0.66;-0.65;-0.655;-0.635;-0.635;-0.63;-0.635;-0.625;-0.605;-0.595;-0.56;-0.515;-0.505;-0.51;-0.55;-0.655;-0.795;-0.995;-1.2;-1.37;-1.485;-1.505;-1.485;-1.43;-1.355;-1.265;-1.17;-1.075;-1.025;-0.95;-0.915;-0.885;-0.84;-0.79;-0.75;-0.71;-0.685;-0.67;-0.655;-0.645;-0.63;-0.625;-0.615;-0.61;-0.6;-0.6;-0.62;-0.615;-0.61;-0.6;-0.595;-0.59;-0.575;-0.57;-0.58;-0.57;-0.6;-0.6;-0.615;-0.615;-0.615;-0.6;-0.58;-0.57;-0.57;-0.57;-0.55;-0.56;-0.565;-0.57;-0.585;-0.585;-0.59;-0.56;-0.555;-0.57;-0.54;-0.545;-0.555;-0.57;-0.59;-0.58;-0.57;-0.595;-0.58;-0.575;-0.54;-0.54;-0.525;-0.525;-0.535;-0.54;-0.55;-0.54;-0.555;-0.575;-0.575;-0.545;-0.545;-0.535;-0.53;-0.525;-0.535;-0.54;-0.55;-0.56;-0.56;-0.575;-0.555;-0.54;-0.525;-0.51;-0.5;-0.495;-0.51;-0.505;-0.525;-0.525;-0.56;-0.57;-0.565;-0.55;-0.545;-0.54;-0.52;-0.53;-0.545;-0.54;-0.56;-0.575;-0.585;-0.585;-0.59;-0.58;-0.575;-0.57;-0.545;-0.585;-0.58;-0.58;-0.605;-0.6;-0.615;-0.63;-0.62;-0.62;-0.615;-0.6;-0.585;-0.59;-0.585;-0.605;-0.63;-0.62;-0.625;-0.615;-0.615;-0.615;-0.585;-0.565;-0.56;-0.565;-0.58;-0.585;-0.595;-0.59;-0.6;-0.61;-0.61;-0.605;-0.605;-0.58;-0.58;-0.575;-0.59;-0.585;-0.61;-0.6;-0.61;-0.62;-0.61;-0.595;-0.59;-0.595;-0.585;-0.585;-0.58;-0.585;-0.605;-0.6;-0.62;-0.625;-0.615;-0.61;-0.61;-0.595;-0.59;-0.615;-0.61;-0.605;-0.63;-0.64;-0.635;-0.635;-0.63;-0.625;-0.59;-0.595;-0.595;-0.585;-0.585;-0.6;-0.625;-0.62;-0.63;-0.645;-0.63;-0.62;-0.63;-0.61;-0.605;-0.615;-0.605;-0.61;-0.615;-0.61;-0.62;-0.615;-0.63;-0.6;-0.61;-0.595;-0.575;-0.605;-0.61;-0.61;-0.625;-0.62;-0.635;-0.65;-0.64;-0.64;-0.615;-0.63;-0.615;-0.61;-0.61;-0.615;-0.625;-0.64;-0.645;-0.65;-0.65;-0.64;-0.605;-0.615;-0.615;-0.62;-0.615;-0.63;-0.62;-0.65;-0.645;-0.65;-0.65;-0.66;-0.645;-0.645;-0.615;-0.625;-0.625;-0.63;-0.635;-0.645;-0.64;-0.645;-0.645;-0.635;-0.625;-0.615;-0.605;-0.63;-0.61;-0.63;-0.64;-0.635;-0.655;-0.645;-0.635;-0.625;-0.595;-0.595;-0.555;-0.54;-0.55;-0.555;-0.555;-0.54;-0.565;-0.555;-0.565;-0.575;-0.585;-0.605;-0.63;-0.645;-0.66;-0.67;-0.675;-0.68;-0.7;-0.71;-0.725;-0.71;-0.68;-0.68;-0.655;-0.645;-0.66;-0.665;-0.67;-0.695;-0.7;-0.7;-0.7;-0.705;-0.7;-0.68;-0.685;-0.68;-0.695;-0.685;-0.7;-0.7;-0.7;-0.725;-0.71;-0.7;-0.69;-0.68;-0.68;-0.665;-0.67;-0.665;-0.665;-0.66;-0.645;-0.595;-0.545;-0.48;-0.435;-0.46;-0.515;-0.62;-0.785;-1.005;-1.235;-1.455;-1.64;-1.76;-1.795;-1.775;-1.705;-1.63;-1.535;-1.445;-1.345;-1.24;-1.16;-1.07;-0.985;-0.935;-0.86;-0.795;-0.74;-0.705;-0.68;-0.67;-0.655;-0.67;-0.685;-0.68;-0.675;-0.66;-0.67;-0.64;-0.62;-0.605;-0.6;-0.59;-0.58;-0.595;-0.59;-0.62;-0.61;-0.625;-0.62;-0.615;-0.595;-0.6;-0.575;-0.585;-0.595;-0.605;-0.59;-0.62;-0.61;-0.615;-0.62;-0.605;-0.58;-0.575;-0.565;-0.56;-0.56;-0.58;-0.58;-0.59;-0.605;-0.61;-0.605;-0.605;-0.58;-0.58;-0.575;-0.575;-0.565;-0.57;-0.59;-0.58;-0.6;-0.59;-0.585;-0.565;-0.545;-0.53;-0.53;-0.52;-0.51;-0.515;-0.525;-0.54;-0.535;-0.525;-0.535;-0.535;-0.5;-0.505;-0.49;-0.48;-0.495;-0.49;-0.5;-0.515;-0.515;-0.52;-0.52;-0.495;-0.495;-0.485;-0.46;-0.475;-0.48;-0.485;-0.51;-0.515;-0.53;-0.525;-0.535;-0.53;-0.53;-0.54;-0.53;-0.53;-0.545;-0.565;-0.57;-0.585;-0.57;-0.575;-0.565;-0.57;-0.565;-0.56;-0.545;-0.55;-0.56;-0.575;-0.59;-0.585;-0.61;-0.62;-0.63;-0.615;-0.605;-0.615;-0.615;-0.61;-0.61;-0.605;-0.625;-0.635;-0.625;-0.64;-0.64;-0.62;-0.615;-0.605;-0.595;-0.585;-0.61;-0.6;-0.625;-0.64;-0.635;-0.655;-0.655;-0.645;-0.615;-0.62;-0.625;-0.615;-0.62;-0.625;-0.63;-0.65;-0.64;-0.64;-0.635;-0.63;-0.62;-0.63;-0.61;-0.61;-0.62;-0.63;-0.64;-0.65;-0.67;-0.675;-0.67;-0.655;-0.665;-0.65;-0.635;-0.64;-0.65;-0.64;-0.67;-0.655;-0.67;-0.675;-0.675;-0.66;-0.65;-0.645;-0.63;-0.635;-0.635;-0.645;-0.66;-0.68;-0.685;-0.695;-0.7;-0.69;-0.675;-0.66;-0.65;-0.66;-0.64;-0.66;-0.645;-0.655;-0.655;-0.66;-0.67;-0.655;-0.645;-0.645;-0.63;-0.635;-0.635;-0.65;-0.645;-0.66;-0.66;-0.68;-0.68;-0.68;-0.675;-0.65;-0.655;-0.66;-0.65;-0.66;-0.645;-0.655;-0.665;-0.665;-0.66;-0.665;-0.65;-0.655;-0.65;-0.655;-0.64;-0.65;-0.665;-0.665;-0.68;-0.7;-0.69;-0.675;-0.66;-0.63;-0.61;-0.6;-0.585;-0.57;-0.575;-0.57;-0.585;-0.595;-0.575;-0.555;-0.545;-0.545;-0.555;-0.55;-0.585;-0.61;-0.66;-0.68;-0.705;-0.715;-0.705;-0.685;-0.69;-0.685;-0.69;-0.67;-0.68;-0.68;-0.69;-0.695;-0.7;-0.72;-0.725;-0.72;-0.71;-0.715;-0.69;-0.69;-0.71;-0.715;-0.715;-0.73;-0.73;-0.72;-0.73;-0.73;-0.7;-0.7;-0.695;-0.7;-0.685;-0.695;-0.705;-0.715;-0.735;-0.735;-0.725;-0.7;-0.695;-0.65;-0.595;-0.54;-0.5;-0.505;-0.545;-0.64;-0.795;-0.99;-1.22;-1.435;-1.615;-1.71;-1.715;-1.69;-1.64;-1.56;-1.49;-1.4;-1.315;-1.235;-1.135;-1.055;-0.975;-0.905;-0.83;-0.77;-0.735;-0.715;-0.7;-0.705;-0.71;-0.695;-0.695;-0.67;-0.64;-0.64;-0.625;-0.625;-0.62;-0.615;-0.645;-0.655;-0.655;-0.675;-0.655;-0.65;-0.635;-0.635;-0.63;-0.62;-0.615;-0.635;-0.625;-0.64;-0.63;-0.63;-0.65;-0.63;-0.625;-0.625;-0.61;-0.6;-0.615;-0.61;-0.63;-0.64;-0.645;-0.635;-0.645;-0.635;-0.62;-0.61;-0.59;-0.59;-0.595;-0.585;-0.605;-0.61;-0.63;-0.615;-0.615;-0.625;-0.61;-0.605;-0.59;-0.585;-0.595;-0.6;-0.6;-0.625;-0.625;-0.635;-0.645;-0.615;-0.62;-0.61;-0.585;-0.6;-0.59;-0.595;-0.615;-0.625;-0.63;-0.655;-0.66;-0.645;-0.65;-0.64;-0.63;-0.625;-0.64;-0.645;-0.655;-0.69;-0.685;-0.685;-0.69;-0.655;-0.665;-0.65;-0.64;-0.635;-0.645;-0.65;-0.645;-0.65;-0.67;-0.67;-0.67;-0.635;-0.625;-0.635;-0.63;-0.625;-0.63;-0.635;-0.65;-0.66;-0.655;-0.665;-0.66;-0.665;-0.64;-0.63;-0.625;-0.61;-0.63;-0.64;-0.66;-0.66;-0.675;-0.655;-0.655;-0.66;-0.665;-0.65;-0.635;-0.635;-0.64;-0.645;-0.65;-0.67;-0.66;-0.66;-0.66;-0.645;-0.62;-0.605;-0.615;-0.615;-0.61;-0.64;-0.63;-0.64;-0.655;-0.665;-0.65;-0.665;-0.655;-0.65;-0.64;-0.635;-0.64;-0.645;-0.65;-0.65;-0.66;-0.67;-0.65;-0.645;-0.645;-0.63;-0.625;-0.62;-0.625;-0.64;-0.64;-0.64;-0.66;-0.665;-0.66;-0.65;-0.65;-0.655;-0.625;-0.64;-0.64;-0.64;-0.645;-0.65;-0.64;-0.655;-0.66;-0.66;-0.63;-0.625;-0.63;-0.62;-0.625;-0.635;-0.635;-0.65;-0.66;-0.645;-0.655;-0.665;-0.645;-0.645;-0.615;-0.63;-0.635;-0.63;-0.635;-0.65;-0.64;-0.66;-0.635;-0.635;-0.635;-0.62;-0.61;-0.6;-0.605;-0.615;-0.615;-0.61;-0.605;-0.6;-0.6;-0.585;-0.57;-0.57;-0.555;-0.535;-0.53;-0.535;-0.56;-0.58;-0.585;-0.62;-0.63;-0.65;-0.655;-0.655;-0.64;-0.64;-0.65;-0.665;-0.68;-0.705;-0.705;-0.695;-0.7;-0.68;-0.68;-0.66;-0.67;-0.655;-0.645;-0.65;-0.675;-0.67;-0.685;-0.69;-0.69;-0.675;-0.675;-0.655;-0.655;-0.645;-0.655;-0.65;-0.68;-0.695;-0.695;-0.7;-0.7;-0.68;-0.675;-0.665;-0.67;-0.645;-0.635;-0.645;-0.645;-0.635;-0.63;-0.59;-0.535;-0.485;-0.45;-0.455;-0.49;-0.565;-0.71;-0.895;-1.095;-1.3;-1.47;-1.58;-1.61;-1.585;-1.53;-1.46;-1.39;-1.3;-1.23;-1.15;-1.085;-1.03;-0.98;-0.925;-0.865;-0.805;-0.735;-0.68;-0.66;-0.63;-0.635;-0.63;-0.625;-0.63;-0.635;-0.65;-0.64;-0.625;-0.615;-0.6;-0.575;-0.565;-0.58;-0.565;-0.575;-0.57;-0.57;-0.6;-0.595;-0.58;-0.565;-0.57;-0.575;-0.565;-0.57;-0.565;-0.58;-0.585;-0.59;-0.6;-0.595;-0.59;-0.57;-0.545;-0.545;-0.54;-0.535;-0.55;-0.56;-0.56;-0.57;-0.57;-0.585;-0.585;-0.555;-0.56;-0.55;-0.555;-0.56;-0.55;-0.565;-0.575;-0.595;-0.575;-0.585;-0.58;-0.565;-0.565;-0.535;-0.535;-0.535;-0.56;-0.58;-0.585;-0.585;-0.595;-0.585;-0.58;-0.575;-0.575;-0.57;-0.56;-0.565;-0.575;-0.58;-0.595;-0.61;-0.615;-0.6;-0.6;-0.59;-0.575;-0.57;-0.56;-0.57;-0.585;-0.615;-0.605;-0.63;-0.635;-0.62;-0.625;-0.62;-0.585;-0.605;-0.59;-0.585;-0.575;-0.58;-0.595;-0.6;-0.595;-0.575;-0.58;-0.565;-0.55;-0.54;-0.54;-0.54;-0.545;-0.57;-0.56;-0.575;-0.605;-0.595;-0.6;-0.595;-0.59;-0.58;-0.555;-0.59;-0.57;-0.585;-0.585;-0.585;-0.595;-0.585;-0.585;-0.575;-0.555;-0.565;-0.555;-0.555;-0.55;-0.575;-0.595;-0.62;-0.59;-0.59;-0.595;-0.59;-0.585;-0.57;-0.57;-0.57;-0.58;-0.575;-0.595;-0.595;-0.58;-0.595;-0.59;-0.59;-0.56;-0.56;-0.565;-0.565;-0.58;-0.6;-0.6;-0.6;-0.605;-0.615;-0.605;-0.595;-0.59;-0.58;-0.57;-0.57;-0.57;-0.565;-0.585;-0.595;-0.61;-0.62;-0.62;-0.595;-0.595;-0.585;-0.585;-0.585;-0.6;-0.605;-0.615;-0.625;-0.63;-0.64;-0.635;-0.61;-0.595;-0.59;-0.58;-0.58;-0.59;-0.59;-0.6;-0.615;-0.605;-0.615;-0.615;-0.62;-0.605;-0.595;-0.585;-0.595;-0.595;-0.605;-0.625;-0.64;-0.635;-0.635;-0.635;-0.615;-0.605;-0.585;-0.575;-0.57;-0.575;-0.59;-0.59;-0.605;-0.605;-0.605;-0.58;-0.575;-0.555;-0.545;-0.525;-0.53;-0.525;-0.525;-0.54;-0.535;-0.53;-0.535;-0.55;-0.535;-0.55;-0.58;-0.575;-0.585;-0.62;-0.615;-0.625;-0.64;-0.655;-0.65;-0.65;-0.66;-0.645;-0.62;-0.62;-0.62;-0.625;-0.64;-0.655;-0.68;-0.665;-0.675;-0.67;-0.66;-0.645;-0.635;-0.615;-0.625;-0.63;-0.65;-0.635;-0.66;-0.66;-0.67;-0.67;-0.655;-0.64;-0.635;-0.64;-0.64;-0.65;-0.67;-0.665;-0.665;-0.67;-0.645;-0.645;-0.62;-0.575;-0.52;-0.44;-0.395;-0.395;-0.44;-0.54;-0.695;-0.885;-1.13;-1.37;-1.565;-1.69;-1.72;-1.7;-1.655;-1.575;-1.485;-1.4;-1.3;-1.195;-1.09;-1.01;-0.92;-0.845;-0.755;-0.695;-0.66;-0.645;-0.63;-0.635;-0.655;-0.625;-0.635;-0.615;-0.6;-0.58;-0.58;-0.56;-0.585;-0.57;-0.585;-0.595;-0.585;-0.59;-0.575;-0.575;-0.55;-0.55;-0.545;-0.535;-0.54;-0.535;-0.55;-0.565;-0.555;-0.56;-0.58;-0.565;-0.555;-0.57;-0.55;-0.55;-0.545;-0.545;-0.55;-0.54;-0.56;-0.55;-0.555;-0.555;-0.54;-0.53;-0.52;-0.505;-0.515;-0.515;-0.545;-0.535;-0.545;-0.56;-0.55;-0.555;-0.54;-0.51;-0.51;-0.495;-0.5;-0.5;-0.5;-0.505;-0.51;-0.51;-0.51;-0.5;-0.475;-0.475;-0.47;-0.45;-0.47;-0.475;-0.485;-0.48;-0.495;-0.49;-0.48;-0.49;-0.475;-0.48;-0.475;-0.455;-0.455;-0.46;-0.46;-0.48;-0.495;-0.495;-0.505;-0.51;-0.515;-0.51;-0.495;-0.5;-0.505;-0.495;-0.515;-0.54;-0.555;-0.56;-0.55;-0.56;-0.55;-0.555;-0.54;-0.535;-0.535;-0.535;-0.55;-0.57;-0.575;-0.575;-0.59;-0.58;-0.57;-0.57;-0.56;-0.565;-0.565;-0.575;-0.58;-0.6;-0.605;-0.615;-0.615;-0.62;-0.595;-0.595;-0.595;-0.57;-0.575;-0.57;-0.58;-0.59;-0.59;-0.605;-0.605;-0.61;-0.61;-0.6;-0.59;-0.605;-0.605;-0.61;-0.625;-0.615;-0.63;-0.63;-0.63;-0.62;-0.61;-0.6;-0.595;-0.59;-0.575;-0.6;-0.605;-0.605;-0.63;-0.63;-0.62;-0.615;-0.625;-0.6;-0.605;-0.585;-0.6;-0.605;-0.61;-0.62;-0.63;-0.63;-0.625;-0.615;-0.61;-0.59;-0.565;-0.565;-0.57;-0.59;-0.585;-0.605;-0.595;-0.605;-0.64;-0.62;-0.615;-0.62;-0.595;-0.595;-0.59;-0.615;-0.625;-0.625;-0.65;-0.625;-0.625;-0.62;-0.605;-0.615;-0.595;-0.58;-0.59;-0.6;-0.605;-0.61;-0.63;-0.635;-0.64;-0.645;-0.625;-0.61;-0.615;-0.615;-0.62;-0.63;-0.62;-0.64;-0.63;-0.64;-0.655;-0.625;-0.61;-0.61;-0.59;-0.6;-0.6;-0.6;-0.61;-0.615;-0.61;-0.63;-0.615;-0.615;-0.59;-0.575;-0.565;-0.545;-0.53;-0.535;-0.53;-0.52;-0.53;-0.52;-0.525;-0.54;-0.535;-0.545;-0.565;-0.58;-0.595;-0.62;-0.635;-0.65;-0.67;-0.66;-0.685;-0.685;-0.68;-0.68;-0.67;-0.66;-0.64;-0.65;-0.655;-0.655;-0.675;-0.67;-0.685;-0.695;-0.66;-0.67;-0.66;-0.63;-0.645;-0.67;-0.66;-0.68;-0.685;-0.7;-0.7;-0.705;-0.685;-0.685;-0.66;-0.64;-0.645;-0.645;-0.66;-0.64;-0.68;-0.67;-0.675;-0.665;-0.64;-0.59;-0.53;-0.465;-0.435;-0.465;-0.52;-0.68;-0.88;-1.11;-1.36;-1.585;-1.71;-1.795;-1.77;-1.71;-1.635;-1.55;-1.46;-1.375;-1.26;-1.175;-1.075;-0.985;-0.91;-0.845;-0.775;-0.71;-0.69;-0.665;-0.67;-0.675;-0.665;-0.665;-0.665;-0.655;-0.635;-0.62;-0.61;-0.59;-0.585;-0.59;-0.575;-0.595;-0.595;-0.6;-0.59;-0.605;-0.605;-0.575;-0.575;-0.565;-0.57;-0.57;-0.58;-0.59;-0.605;-0.6;-0.615;-0.6;-0.595;-0.58;-0.565;-0.545;-0.555;-0.56;-0.57;-0.585;-0.6;-0.605;-0.615;-0.6;-0.59;-0.58;-0.58;-0.56;-0.565;-0.58;-0.585;-0.57;-0.59;-0.585;-0.58;-0.575;-0.585;-0.555;-0.535;-0.53;-0.54;-0.555;-0.545;-0.57;-0.57;-0.58;-0.575;-0.57;-0.575;-0.565;-0.54;-0.545;-0.545;-0.545;-0.555;-0.565;-0.575;-0.58;-0.575;-0.58;-0.565;-0.565;-0.555;-0.545;-0.555;-0.56;-0.575;-0.585;-0.6;-0.615;-0.61;-0.615;-0.625;-0.625;-0.62;-0.61;-0.6;-0.605;-0.62;-0.615;-0.62;-0.61;-0.625;-0.615;-0.59;-0.575;-0.585;-0.57;-0.58;-0.58;-0.6;-0.62;-0.615;-0.615;-0.64;-0.62;-0.63;-0.63;-0.605;-0.615;-0.61;-0.615;-0.62;-0.625;-0.645;-0.64;-0.64;-0.63;-0.635;-0.625;-0.605;-0.61;-0.61;-0.61;-0.62;-0.64;-0.65;-0.655;-0.65;-0.645;-0.655;-0.63;-0.625;-0.6;-0.595;-0.615;-0.605;-0.62;-0.63;-0.625;-0.64;-0.625;-0.62;-0.6;-0.605;-0.6;-0.595;-0.605;-0.605;-0.63;-0.64;-0.63;-0.65;-0.635;-0.645;-0.635;-0.625;-0.605;-0.61;-0.615;-0.625;-0.615;-0.625;-0.63;-0.63;-0.625;-0.615;-0.63;-0.61;-0.595;-0.62;-0.61;-0.64;-0.635;-0.64;-0.645;-0.64;-0.635;-0.65;-0.63;-0.625;-0.61;-0.615;-0.6;-0.615;-0.615;-0.63;-0.65;-0.65;-0.645;-0.645;-0.635;-0.625;-0.615;-0.62;-0.615;-0.62;-0.645;-0.645;-0.65;-0.67;-0.665;-0.66;-0.635;-0.64;-0.635;-0.62;-0.62;-0.63;-0.63;-0.65;-0.635;-0.64;-0.63;-0.64;-0.63;-0.615;-0.615;-0.61;-0.595;-0.585;-0.595;-0.585;-0.595;-0.585;-0.585;-0.575;-0.555;-0.555;-0.54;-0.535;-0.55;-0.575;-0.605;-0.64;-0.655;-0.67;-0.685;-0.695;-0.675;-0.67;-0.68;-0.675;-0.69;-0.68;-0.7;-0.69;-0.69;-0.73;-0.725;-0.72;-0.7;-0.69;-0.705;-0.695;-0.67;-0.685;-0.695;-0.71;-0.7;-0.715;-0.72;-0.71;-0.695;-0.7;-0.695;-0.685;-0.69;-0.695;-0.7;-0.72;-0.73;-0.745;-0.73;-0.715;-0.68;-0.67;-0.65;-0.625;-0.6;-0.555;-0.52;-0.49;-0.465;-0.51;-0.585;-0.69;-0.84;-1.04;-1.26;-1.45;-1.585;-1.67;-1.67;-1.64;-1.585;-1.52;-1.445;-1.375;-1.265;-1.17;-1.08;-1;-0.97;-0.905;-0.85;-0.805;-0.76;-0.73;-0.7;-0.68;-0.66;-0.655;-0.635;-0.63;-0.63;-0.63;-0.63;-0.635;-0.64;-0.63;-0.63;-0.605;-0.605;-0.59;-0.57;-0.57;-0.58;-0.575;-0.595
4;0;0.01;0;0.025;0.02;0.02;0.005;-0.005;-0.025;-0.02;-0.015;-0.01;-0.025;-0.035;-0.03;-0.03;-0.03;-0.035;-0.045;-0.055;-0.055;-0.05;-0.03;-0.05;-0.05;-0.075;-0.07;-0.055;-0.03;-0.03;-0.04;-0.045;-0.055;-0.04;-0.03;-0.03;-0.03;-0.035;-0.03;-0.02;-0.005;-0.015;-0.02;-0.03;-0.025;-0.015;-0.005;0;-0.005;-0.015;-0.02;0;0.01;0.005;0;-0.01;-0.005;0;0.015;0.01;0;-0.02;-0.01;0.005;0.025;0.015;0.005;-0.02;-0.005;-0.005;0.005;0.015;0;-0.015;-0.01;0.005;0.015;0.01;0.02;-0.01;-0.01;-0.005;0.005;0.01;-0.005;-0.015;-0.015;0.005;0.01;0.005;-0.005;-0.02;-0.02;-0.005;0.01;0;0;-0.005;-0.015;-0.005;0;0;-0.01;-0.03;-0.02;-0.02;-0.01;-0.015;-0.02;-0.03;-0.03;-0.015;-0.005;-0.01;-0.01;-0.03;-0.03;-0.02;-0.01;-0.005;-0.02;-0.035;-0.035;-0.015;-0.01;-0.01;-0.015;-0.03;-0.03;-0.02;-0.005;-0.02;-0.03;-0.045;-0.045;-0.025;-0.01;-0.01;-0.015;-0.03;-0.02;-0.025;-0.01;-0.005;-0.01;-0.025;-0.035;-0.02;-0.01;-0.015;-0.015;-0.045;-0.04;-0.02;-0.01;-0.005;-0.025;-0.03;-0.04;-0.02;-0.02;-0.015;-0.02;-0.025;-0.025;-0.015;-0.01;-0.005;-0.02;-0.03;-0.035;-0.02;-0.005;-0.01;-0.02;-0.035;-0.03;-0.035;-0.005;-0.005;-0.02;-0.025;-0.03;-0.01;0;0.005;-0.005;-0.025;-0.025;-0.005;0.01;0.025;0.02;0.035;0.06;0.09;0.115;0.125;0.115;0.105;0.1;0.13;0.135;0.135;0.125;0.115;0.095;0.095;0.08;0.06;0.015;-0.01;-0.035;-0.025;0.005;0;-0.02;-0.015;-0.02;0;0.01;0.005;-0.02;-0.035;-0.025;-0.015;-0.005;-0.005;-0.02;-0.03;-0.025;-0.02;-0.015;-0.02;-0.03;-0.065;-0.085;-0.075;-0.055;-0.025;-0.03;-0.05;-0.03;0.025;0.07;0.1;0.105;0.155;0.2;0.185;0.155;0.09;0.01;-0.07;-0.15;-0.2;-0.225;-0.22;-0.21;-0.185;-0.13;-0.085;-0.05;-0.04;-0.03;-0.03;-0.025;-0.015;-0.005;-0.005;-0.005;-0.025;-0.015;0;0.01;0.01;-0.005;-0.01;-0.015;-0.005;0.005;0.015;0.01;-0.02;-0.015;0.005;0.025;0.02;0.01;-0.005;0;0.015;0.02;0.02;0.015;0.01;-0.005;-0.005;0.025;0.01;0.015;-0.005;0.005;0.01;0.02;0.02;0.015;0.005;0.01;0.01;0.02;0.02;0;-0.005;0;0.01;0.035;0.015;0.01;-0.015;-0.015;-0.005;0.005;0.005;0;-0.015;-0.02;-0.01;0.005;0.015;-0.005;-0.01;-0.02;-0.015;-0.02;-0.03;-0.04;-0.055;-0.04;-0.04;-0.01;-0.015;-0.02;-0.04;-0.025;-0.02;0.005;-0.005;-0.005;-0.025;-0.035;-0.04;-0.025;-0.02;-0.015;-0.025;-0.015;-0.01;0;0.01;-0.015;-0.02;-0.005;0.02;0.02;0.04;0.015;0;-0.015;0;0.015;0;0.005;0;0;0.015;0.035;0.03;0.01;0;0.01;0.03;0.04;0.035;0.025;0.02;0.025;0.03;0.05;0.04;0.035;0.02;0.005;0.03;0.045;0.04;0.035;0.02;0.025;0.035;0.045;0.035;0.03;0.02;0.025;0.035;0.04;0.035;0.03;0.015;0.03;0.025;0.05;0.045;0.03;0.005;0.015;0.02;0.04;0.03;0.03;0.015;0.02;0.025;0.045;0.03;0.015;0.01;0.015;0.02;0.025;0.02;0.015;0.015;0.01;0.015;0.04;0.04;0.02;0.005;0.025;0.03;0.035;0.02;0.01;0;0.015;0.025;0.035;0.025;0.025;0.005;0.015;0.02;0.025;0.03;0.01;0;0.005;0.02;0.03;0.02;0;0;0.01;0.035;0.045;0.045;0.035;0;-0.005;0.01;0.02;0.025;0.01;0;0;0.015;0.025;0;-0.01;-0.015;-0.005;0;0.015;0.015;0.025;0.02;0.025;0.025;0.03;0.02;0.015;0.03;0.05;0.04;0.04;0.03;0.015;0;0.03;0.1;0.17;0.2;0.185;0.15;0.13;0.125;0.145;0.15;0.15;0.15;0.135;0.155;0.145;0.135;0.095;0.075;0.055;0.025;0.02;0.005;0.01;0.005;0.01;0.02;0.03;0.035;0.03;0;-0.015;-0.01;0;-0.015;-0.025;-0.05;-0.035;-0.035;-0.02;-0.005;-0.01;-0.015;-0.01;-0.01;-0.02;-0.04;-0.065;-0.06;-0.055;-0.02;-0.005;-0.02;-0.025;0.005;0.05;0.095;0.125;0.17;0.2;0.17;0.12;0.06;-0.005;-0.085;-0.155;-0.22;-0.255;-0.24;-0.19;-0.14;-0.105;-0.08;-0.06;-0.02;0;0.01;-0.01;-0.015;-0.01;0;0.01;0.01;0;-0.025;-0.015;0.015;0.035;0.035;0.01;-0.02;-0.005;0.005;0.02;0.02;0.005;-0.025;-0.015;-0.01;0;0;-0.01;-0.02;-0.025;-0.025;-0.005;0.005;-0.01;-0.025;-0.025;-0.005;0.01;0.015;0.01;-0.005;-0.01;0.015;0.025;0.02;0.005;-0.005;-0.005;0.015;0.02;0.015;0.01;0;-0.01;0.01;0.015;0.015;-0.005;-0.015;-0.01;-0.005;0.01;0.01;0;-0.015;-0.015;-0.01;0;0.005;-0.01;-0.025;-0.03;-0.025;-0.02;-0.01;0;-0.04;-0.035;-0.03;-0.02;-0.01;-0.025;-0.04;-0.025;-0.01;-0.005;0.015;-0.005;0;-0.03;-0.02;-0.01;0;0;-0.01;-0.005;0.005;0.025;0.02;0.01;-0.005;-0.005;0.005;0.02;0.03;0.03;0.015;0.03;0.03;0.025;0.025;0.01;0;0;0.015;0.03;0.03;0.02;0.015;0.015;0.045;0.045;0.05;0.025;0.025;0.015;0.025;0.04;0.05;0.045;0.02;0.025;0.025;0.035;0.045;0.02;0.015;0.005;0.03;0.05;0.045;0.035;0.025;0.035;0.045;0.06;0.06;0.045;0.04;0.035;0.055;0.065;0.05;0.04;0.03;0.03;0.045;0.055;0.04;0.02;0.01;0.005;0.015;0.035;0.035;0.02;0.005;0.005;0.01;0.02;0.03;0.015;0.02;0.01;0.03;0.03;0.03;0.015;0.01;0.015;0.02;0.035;0.02;0.01;0;0.005;0.02;0.025;0.025;0.025;0;0.015;0.02;0.03;0.02;0.01;-0.01;0.01;0.015;0.03;0.015;0.01;-0.005;-0.015;0;0.025;0.015;0.015;0.005;0;0.015;0.04;0.03;0.015;-0.005;-0.01;0;0.02;0.015;0.005;-0.005;-0.005;-0.01;0.01;0.015;0.01;-0.005;0.005;0.015;0.03;0.04;0.025;0.01;0.015;0.035;0.065;0.09;0.115;0.11;0.14;0.155;0.16;0.16;0.145;0.12;0.125;0.14;0.135;0.115;0.095;0.05;0.02;-0.01;-0.01;-0.005;0;-0.015;-0.015;0.005;0.01;0.02;0.025;-0.015;-0.02;0;0.015;0.01;-0.005;-0.025;-0.015;0;0;0;-0.015;-0.04;-0.05;-0.065;-0.05;-0.055;-0.05;-0.06;-0.035;-0.05;-0.055;-0.03;0.005;0.04;0.095;0.14;0.18;0.165;0.095;0.01;-0.06;-0.14;-0.195;-0.255;-0.295;-0.31;-0.265;-0.175;-0.13;-0.095;-0.07;-0.075;-0.085;-0.08;-0.055;-0.06;-0.04;-0.055;-0.045;-0.04;-0.01;-0.01;-0.015;-0.035;-0.04;-0.015;-0.005;-0.005;-0.02;-0.035;-0.03;-0.015;-0.005;0;-0.005;-0.02;-0.015;0;0.005;0;0;0;-0.005;-0.01;0;0;0;0;-0.015;0.005;0.015;0.01;0.005;-0.01;0.005;0;0.025;0.025;0.015;0;0.01;0.015;0.03;0.025;0.02;0.005;0.01;0.01;0.035;0.015;0.005;-0.005;-0.005;0.01;0.02;0.015;0;-0.01;-0.015;-0.005;0.01;-0.005;-0.005;-0.025;-0.035;-0.04;-0.025;-0.03;-0.045;-0.055;-0.06;-0.055;-0.025;-0.035;-0.05;-0.06;-0.065;-0.07;-0.05;-0.04;-0.05;-0.075;-0.06;-0.045;-0.035;-0.03;-0.035;-0.045;-0.035;-0.025;-0.02;-0.005;-0.01;-0.015;-0.02;0.005;0.01;0.025;0.015;-0.005;0;0.015;0.03;0.04;0.03;0.025;0.025;0.025;0.04;0.03;0.015;0.02;0.02;0.035;0.045;0.05;0.05;0.045;0.04;0.04;0.045;0.04;0.045;0.035;0.025;0.03;0.04;0.03;0.02;0.015;0.025;0.035;0.035;0.03;0.02;0.015;0.01;0.03;0.045;0.035;0.035;0.025;0.025;0.035;0.045;0.05;0.04;0.035;0.03;0.05;0.075;0.08;0.06;0.035;0.03;0.055;0.065;0.06;0.045;0.015;0.015;0.03;0.05;0.045;0.055;0.03;0.025;0.04;0.055;0.06;0.045;0.035;0.035;0.05;0.055;0.05;0.035;0.03;0.04;0.055;0.07;0.08;0.065;0.06;0.06;0.065;0.08;0.085;0.075;0.055;0.055;0.065;0.075;0.075;0.08;0.065;0.07;0.09;0.095;0.11;0.095;0.08;0.075;0.07;0.105;0.095;0.105;0.08;0.095;0.105;0.13;0.135;0.125;0.12;0.145;0.185;0.2;0.19;0.165;0.14;0.135;0.165;0.195;0.205;0.185;0.165;0.135;0.11;0.105;0.09;0.045;0.01;0.015;0.045;0.06;0.06;0.045;0.065;0.1;0.115;0.145;0.145;0.135;0.105;0.075;0.085;0.08;0.07;0.055;0.03;0.045;0.06;0.075;0.07;0.055;0.025;-0.025;-0.05;-0.105;-0.16;-0.22;-0.25;-0.17;-0.03;0.14;0.275;0.37;0.45;0.495;0.52;0.47;0.335;0.15;-0.03;-0.16;-0.195;-0.14;-0.05;-0.005;-0.015;-0.005;0.035;0.06;0.005;-0.035;-0.055;-0.04;-0.025;-0.005;0.02;0.01;0.01;0.03;0.055;0.07;0.05;0.035;0.025;0.04;0.05;0.075;0.075;0.075;0.07;0.055;0.07;0.07;0.06;0.045;0.025;0.02;0.02;0.045;0.04;0.025;0.01;0.01;0.03;0.045;0.045;0.035;0.02;0.03;0.055;0.055;0.035;0.02;0.015;0.02;0.04;0.04;0.03;0.015;0.005;0.005;0.01;0.02;0.015;0.005;0;-0.015;0;0;0;-0.02;-0.03;-0.035;-0.04;-0.025;-0.03;-0.05;-0.055;-0.075;-0.06;-0.065;-0.075;-0.085;-0.1;-0.085;-0.08;-0.06;-0.07;-0.075;-0.085;-0.07;-0.055;-0.045;-0.065;-0.09;-0.095;-0.085;-0.07;-0.06;-0.06;-0.055;-0.07;-0.07;-0.065;-0.03;-0.025;-0.045;-0.055;-0.04;-0.02;-0.015;-0.005;0;-0.02;-0.025;-0.01;0.005;0;0;-0.01;-0.025;-0.005;0;0.005;0.005;-0.01;-0.01;0;0.025;0.01;0.01;-0.015;-0.02;-0.015;-0.005;-0.005;0;-0.015;-0.02;-0.015;0;0;-0.005;-0.025;-0.03;-0.015;-0.005;-0.01;-0.005;-0.02;-0.02;-0.02;-0.015;-0.015;-0.03;-0.045;-0.035;-0.03;-0.025;-0.02;-0.035;-0.05;-0.035;-0.035;-0.01;-0.005;-0.03;-0.03;-0.025;-0.02;-0.02;-0.02;-0.025;-0.045;-0.03;-0.02;-0.005;-0.005;-0.025;-0.04;-0.03;-0.025;-0.01;-0.015;-0.02;-0.025;-0.025;-0.025;-0.01;0;-0.01;-0.025;-0.02;-0.02;0;-0.005;-0.015;-0.015;-0.025;0;-0.005;0;0;-0.015;-0.01;0;0;0;0;0.005;0.02;0.065;0.12;0.115;0.095;0.075;0.075;0.085;0.105;0.105;0.09;0.06;0.05;0.025;0.005;-0.02;-0.05;-0.045;-0.05;-0.045;-0.01;-0.005;-0.01;-0.03;-0.065;-0.06;-0.055;-0.04;-0.04;-0.045;-0.05;-0.035;-0.03;-0.03;-0.055;-0.065;-0.07;-0.075;-0.08;-0.105;-0.155;-0.16;-0.17;-0.175;-0.175;-0.13;-0.065;0.015;0.105;0.215;0.275;0.255;0.21;0.135;0.02;-0.09;-0.2;-0.275;-0.3;-0.26;-0.205;-0.135;-0.09;-0.06;-0.06;-0.065;-0.06;-0.05;-0.04;-0.03;-0.03;-0.045;-0.045;-0.02;-0.005;-0.005;0.01;-0.005;-0.015;-0.01;0;-0.01;-0.02;-0.035;-0.035;-0.02;-0.01;-0.015;-0.015;-0.015;-0.035;-0.01;0.005;-0.005;-0.01;-0.025;-0.03;0.005;0;0.005;0;-0.005;-0.005;0;0.01;0;-0.015;-0.015;-0.02;-0.015;0;0.005;0.005;-0.015;-0.01;-0.025;-0.02;-0.015;-0.02;-0.045;-0.055;-0.035;-0.03;-0.03;-0.04;-0.05;-0.045;-0.05;-0.045;-0.04;-0.05;-0.065;-0.075;-0.065;-0.05;-0.075;-0.1;-0.105;-0.115;-0.11;-0.095;-0.1;-0.1;-0.1;-0.105;-0.09;-0.065;-0.07;-0.08;-0.085;-0.08;-0.075;-0.05;-0.045;-0.05;-0.065;-0.065;-0.055;-0.03;-0.02;-0.02;-0.045;-0.035;-0.025;0;0;-0.005;-0.02;-0.025;-0.005;0.02;0.02;0;-0.01;-0.01;0;0.03;0.035;0.02;0;0.01;0.015;0.02;0.025;0.025;0.01;0.015;0.03;0.045;0.045;0.025;0.005;0;0.02;0.035;0.025;0.03;0.015;0.015;0.035;0.035;0.04;0.015;0;0.01;0.02;0.045;0.03;0.015;0;0.005;0.015;0.035;0.03;0.02;0.01;0.015;0.03;0.05;0.03;0.015;0;0;0.02;0.045;0.04;0.035;0.01;0.01;0.02;0.04;0.035;0.03;0.025;0.025;0.025;0.035;0.045;0.03;0.015;0.01;0.025;0.045;0.04;0.04;0.015;0.015;0.025;0.045;0.04;0.035;0.03;0.01;0.04;0.035;0.04;0.035;0.03;0.025;0.045;0.05;0.045;0.05;0.045;0.05;0.075;0.095;0.115;0.13;0.155;0.165;0.165;0.185;0.19;0.19;0.16;0.145;0.135;0.145;0.135;0.11;0.075;0.035;0.02;0;0.01;0.025;0.01;0.02;0.045;0.055;0.05;0.045;0.015;0.02;0.035;0.045;0.04;0.025;0.025;0.025;0.035;0.05;0.05;0.04;0.025;0.005;0.005;-0.005;-0.03;-0.05;-0.085;-0.095;-0.13;-0.125;-0.06;0.02;0.105;0.205;0.3;0.355;0.335;0.26;0.15;0.025;-0.09;-0.185;-0.21;-0.195;-0.135;-0.075;-0.035;-0.005;0.01;0.015;-0.005;0.01;0.02;0.05;0.055;0.035;0.035;0.035;0.035;0.06;0.06;0.045;0.04;0.035;0.05;0.055;0.06;0.055;0.035;0.04;0.07;0.065;0.055;0.05;0.03;0.03;0.05;0.06;0.07;0.06;0.055;0.05;0.05;0.07;0.05;0.05;0.04;0.03;0.045;0.045;0.06;0.05;0.04;0.045;0.045;0.07;0.065;0.06;0.035;0.035;0.03;0.04;0.035;0.02;0.005;0.015;0.03;0.03;0.04;0.015;0.005;-0.005;0;0.005;0.015;0.01;-0.025;-0.03;-0.025;-0.01;-0.015;-0.025;-0.05;-0.055;-0.045;-0.035;-0.03;-0.04;-0.04;-0.035;-0.025;0;-0.005;-0.005;-0.03;-0.03;-0.02;-0.01;0.01;0;-0.005;0;0.015;0.035;0.025;0.02;0.015;0.02;0.025;0.06;0.05;0.055;0.035;0.035;0.025;0.04;0.055;0.045;0.03;0.02;0.035;0.045;0.045;0.035;0.03;0.04;0.045;0.06;0.065;0.05;0.06;0.055;0.055;0.08;0.06;0.055;0.035;0.035;0.045;0.065;0.065;0.055;0.04;0.06;0.07;0.075;0.075;0.075;0.065;0.055;0.07;0.08;0.08;0.07;0.045;0.055;0.065;0.08;0.08;0.065;0.055;0.05;0.06;0.06;0.08;0.065;0.05;0.06;0.06;0.08;0.075;0.05;0.05;0.035;0.06;0.06;0.08;0.055;0.045;0.035;0.06;0.075;0.08;0.07;0.05;0.045;0.04;0.07;0.055;0.06;0.05;0.055;0.07;0.075;0.065;0.055;0.05;0.03;0.05;0.065;0.065;0.065;0.045;0.05;0.05;0.075;0.07;0.06;0.055;0.05;0.05;0.07;0.07;0.06;0.06;0.055;0.06;0.065;0.065;0.055;0.06;0.055;0.07;0.08;0.095;0.12;0.145;0.155;0.175;0.19;0.17;0.165;0.15;0.15;0.18;0.175;0.155;0.13;0.09;0.07;0.04;0.035;0.02;0.03;0.035;0.025;0.045;0.07;0.07;0.07;0.05;0.04;0.025;0.035;0.03;0.02;0.01;0.01;0.02;0.03;0.04;0.035;0.02;0.01;0.015;0.015;-0.005;-0.03;-0.07;-0.07;-0.085;-0.095;-0.13;-0.13;-0.075;0.015;0.12;0.23;0.315;0.35;0.31;0.255;0.17;0.06;-0.07;-0.175;-0.245;-0.245;-0.19;-0.125;-0.07;-0.04;-0.025;0;0.01;0.02;0.03;0.02;0.015;0.02;0.02;0.025;0.04;0.03;0.02;0.025;0.035;0.045;0.05;0.05;0.035;0.025;0.035;0.045;0.045;0.045;0.02;0.02;0.035;0.045;0.05;0.045;0.035;0.025;0.035;0.045;0.055;0.035;0.02;0.03;0.04;0.04;0.045;0.04;0.02;0.035;0.045;0.05;0.055;0.03;0.02;0.01;0.03;0.04;0.03;0.025;0.01;0.015;0.02;0.025;0.025;0.015;-0.005;-0.01;-0.01;-0.005;0;-0.02;-0.04;-0.04;-0.035;-0.02;-0.015;-0.04;-0.055;-0.065;-0.055;-0.055;-0.05;-0.06;-0.075;-0.085;-0.07;-0.045;-0.05;-0.055;-0.07;-0.09;-0.085;-0.065;-0.07;-0.065;-0.07;-0.065;-0.045;-0.035;-0.03;-0.035;-0.05;-0.045;-0.035;-0.015;-0.015;-0.025;-0.035;-0.025;-0.015;0.01;0.005;0;-0.005;-0.015;-0.02;0.005;0.01;-0.005;-0.005;-0.005;0.015;0.02;0.025;0.01;-0.005;-0.01;0.015;0.025;0.025;0.02;-0.005;0;0.005;0.025;0.03;0.03;0;0.005;0.015;0.025;0.03;0.015;0.005;0.005;0.015;0.02;0.035;0.025;0.005;0;0.015;0.035;0.035;0.02;-0.005;-0.015;0.01;0.025;0.03;0.025;0.01;0.01;0.01;0.015;0.03;-0.005;-0.005;-0.01;0.005;0.01;0.025;0.015;0;0.005;0.01;0.02;0;-0.005
3;0;-0.01;0;0.01;0.03;0.02;0.005;0.005;0;0.015;0.025;0.015;-0.005;0;0.015;0.02;0.035;0.01;0.005;0;0;0.015;0.025;0.025;0.025;0.015;0.01;0;0;-0.015;-0.02;-0.015;-0.005;-0.005;0.02;0.01;-0.01;-0.025;-0.01;0;0.005;0;-0.01;-0.015;0;0.01;0.015;0.005;0;0;0.005;0.01;0.025;0.015;0.015;0.005;0.005;0.005;0.025;0.025;0.01;0.005;0;0.035;0.035;0.02;0.015;0.005;0;0.015;0.03;0.035;0.02;0.005;0.01;0.015;0.03;0.035;0.02;0.02;0.015;0.015;0.03;0.03;0.035;0.01;0.01;0.015;0.03;0.025;0.03;0.025;0.04;0.07;0.11;0.12;0.12;0.11;0.12;0.13;0.13;0.14;0.145;0.12;0.13;0.13;0.12;0.085;0.06;0.035;0.01;0;0;0;-0.005;-0.015;-0.005;0.01;0.025;0.01;0.005;-0.01;-0.005;0.005;0.02;0.02;0;-0.01;0;0.025;0.025;0.01;-0.02;-0.055;-0.055;-0.08;-0.055;-0.05;-0.055;-0.05;-0.045;0.025;0.105;0.165;0.185;0.225;0.27;0.295;0.28;0.21;0.14;0.015;-0.085;-0.15;-0.185;-0.23;-0.225;-0.185;-0.12;-0.08;-0.03;-0.02;-0.005;-0.035;-0.03;-0.03;-0.015;-0.01;-0.02;-0.025;0;0.02;0.01;0.005;-0.025;-0.015;0;-0.005;0.02;0.015;0.01;-0.015;-0.005;0.02;0.04;0.03;0.005;-0.005;-0.005;0.005;0.025;0.01;0;-0.01;-0.005;0.02;0.025;0.02;-0.015;-0.03;-0.02;0;0.01;-0.005;-0.005;-0.035;-0.015;0.01;0.015;0.015;-0.005;-0.01;-0.01;-0.01;0.015;0.01;0.01;-0.01;-0.015;-0.005;0.025;0.015;0;-0.025;-0.015;0;-0.005;-0.015;-0.03;-0.04;-0.025;-0.02;-0.015;0.005;-0.04;-0.04;-0.04;-0.03;-0.025;-0.025;-0.025;-0.055;-0.035;-0.035;-0.02;-0.03;-0.035;-0.04;-0.03;-0.015;-0.005;-0.005;-0.015;-0.035;-0.02;-0.01;0.005;-0.005;-0.015;-0.035;-0.03;-0.015;-0.005;0;-0.005;-0.025;-0.035;-0.025;-0.015;-0.015;-0.015;-0.02;-0.005;0.01;0.015;0;-0.02;-0.015;-0.02;-0.005;0;-0.005;-0.02;-0.025;-0.015;-0.01;0.015;0.015;0.005;0.005;0;0.015;0.015;0.01;-0.005;-0.005;-0.01;0.015;0.025;0.02;0.005;-0.01;0.005;0.01;0.025;0.03;0.015;0;0.01;0;0.02;0.015;0;0.005;0.005;0.015;0.03;0.03;0.02;0.015;0.025;0.03;0.025;0.01;-0.01;-0.01;-0.01;0.005;0.02;0.02;0.015;0.005;0.02;0.03;0.03;0.005;-0.02;-0.02;-0.025;-0.02;-0.005;-0.005;-0.01;-0.025;-0.01;-0.005;-0.005;-0.01;-0.02;-0.035;-0.02;-0.005;0.015;0.01;-0.005;-0.015;-0.015;0;0;0;-0.015;-0.03;-0.04;-0.015;0;-0.005;-0.015;-0.02;0;-0.005;0.005;0.01;0;-0.005;-0.005;-0.005;0.005;-0.005;-0.02;-0.025;-0.02;0;0;-0.01;-0.025;-0.035;-0.025;-0.01;0;0;-0.025;-0.04;-0.03;-0.005;-0.005;-0.01;-0.015;-0.02;-0.015;0;0.005;-0.005;-0.015;-0.02;-0.015;-0.005;-0.005;-0.005;-0.015;-0.01;-0.005;0.015;0.025;0.03;0.01;0.01;-0.01;-0.015;-0.015;-0.01;-0.015;-0.01;0.01;0.06;0.075;0.1;0.075;0.08;0.085;0.11;0.13;0.12;0.105;0.085;0.075;0.07;0.065;0.03;0.005;-0.04;-0.035;-0.02;0.005;-0.005;-0.005;-0.01;0;0.025;0.04;0.015;0.01;-0.005;0.01;0;0.025;0.005;-0.005;-0.025;-0.015;0;0.015;-0.01;-0.055;-0.115;-0.115;-0.09;-0.075;-0.085;-0.09;-0.07;0.005;0.085;0.15;0.195;0.235;0.23;0.185;0.14;0.06;-0.03;-0.135;-0.215;-0.25;-0.25;-0.2;-0.155;-0.13;-0.11;-0.08;-0.04;-0.03;-0.045;-0.055;-0.055;-0.05;-0.03;-0.015;-0.015;-0.025;-0.035;-0.03;-0.02;-0.005;-0.01;-0.015;-0.025;-0.015;-0.005;0.005;-0.005;-0.01;-0.02;-0.015;0.005;0.02;0.01;0.01;-0.01;-0.015;0.01;0.02;0.005;-0.015;-0.01;0.005;0;0.015;0.015;-0.005;-0.01;-0.005;0.01;0.005;0.005;-0.025;-0.015;-0.01;0;0.01;0.01;0.015;-0.005;-0.005;0.01;0.015;0.005;0.005;-0.01;-0.015;0;0.015;0.005;-0.005;-0.02;-0.02;-0.01;0.005;0;0.005;-0.015;-0.01;-0.005;-0.005;-0.01;-0.025;-0.04;-0.04;-0.03;-0.01;-0.01;-0.025;-0.05;-0.055;-0.025;-0.02;-0.005;-0.015;-0.025;-0.02;-0.01;-0.01;0.01;0;0.005;-0.005;0.005;0.015;0.025;0.015;0.015;0.01;0.035;0.03;0.02;0.03;0.02;0.03;0.03;0.03;0.02;0;0.005;0.01;0.035;0.05;0.055;0.03;0.03;0.03;0.04;0.05;0.05;0.025;0.015;0.03;0.045;0.055;0.075;0.055;0.025;0.035;0.045;0.06;0.055;0.045;0.045;0.04;0.04;0.07;0.065;0.05;0.04;0.045;0.055;0.07;0.075;0.075;0.045;0.045;0.055;0.07;0.065;0.06;0.045;0.06;0.065;0.07;0.065;0.045;0.045;0.055;0.055;0.075;0.065;0.055;0.045;0.06;0.07;0.08;0.075;0.06;0.055;0.055;0.065;0.085;0.085;0.06;0.035;0.05;0.055;0.075;0.08;0.06;0.055;0.045;0.055;0.07;0.085;0.07;0.045;0.035;0.055;0.06;0.055;0.05;0.04;0.05;0.055;0.07;0.065;0.05;0.03;0.04;0.04;0.055;0.055;0.05;0.025;0.035;0.04;0.07;0.06;0.055;0.035;0.045;0.045;0.055;0.055;0.035;0.04;0.035;0.045;0.07;0.055;0.035;0.035;0.04;0.05;0.065;0.055;0.04;0.025;0.045;0.055;0.065;0.085;0.065;0.055;0.045;0.055;0.065;0.085;0.07;0.06;0.05;0.055;0.06;0.06;0.055;0.04;0.035;0.05;0.05;0.05;0.05;0.045;0.035;0.05;0.065;0.055;0.05;0.045;0.075;0.085;0.12;0.145;0.165;0.165;0.165;0.18;0.185;0.19;0.185;0.175;0.18;0.185;0.155;0.11;0.075;0.045;0.015;0.035;0.05;0.045;0.03;0.025;0.045;0.05;0.065;0.04;0.02;0;0.025;0.045;0.045;0.045;0.025;0.005;0.03;0.03;0.055;0.025;0.005;-0.04;-0.045;-0.035;0;-0.01;-0.02;-0.005;0.07;0.175;0.26;0.315;0.355;0.34;0.325;0.26;0.19;0.075;-0.04;-0.145;-0.195;-0.2;-0.145;-0.085;-0.065;-0.035;-0.01;0.015;0.03;0.03;0.025;0.02;0.035;0.045;0.045;0.055;0.045;0.02;0.03;0.045;0.04;0.05;0.035;0.02;0.03;0.06;0.065;0.06;0.05;0.025;0.045;0.065;0.08;0.07;0.045;0.035;0.045;0.065;0.065;0.075;0.08;0.05;0.06;0.065;0.085;0.045;0.03;0.005;0.025;0.05;0.055;0.04;0.03;0.03;0.035;0.05;0.05;0.035;0.03;0.015;0.035;0.045;0.05;0.04;0.03;0.02;0.025;0.04;0.055;0.055;0.03;0.015;0.015;0.03;0.03;0.045;0.02;0;0.005;0.02;0.025;0.025;0.01;-0.01;0.005;0.005;0.01;0;-0.01;-0.02;-0.02;0.005;0.015;0.01;0.005;-0.005;0.005;0.035;0.045;0.03;0.015;-0.005;0;0.025;0.045;0.035;0.035;0.005;0.02;0.035;0.04;0.035;0.03;0.02;0.04;0.055;0.06;0.05;0.035;0.035;0.035;0.045;0.045;0.04;0.025;0.005;0.02;0.035;0.055;0.055;0.05;0.055;0.055;0.06;0.045;0.03;0.015;0;0.015;0.04;0.045;0.045;0.025;0.02;0.025;0.055;0.055;0.06;0.045;0.035;0.045;0.06;0.09;0.1;0.085;0.06;0.055;0.055;0.065;0.065;0.05;0.035;0.045;0.065;0.075;0.065;0.05;0.035;0.035;0.05;0.07;0.05;0.045;0.035;0.04;0.05;0.07;0.065;0.05;0.035;0.035;0.055;0.055;0.055;0.035;0.03;0.035;0.045;0.06;0.055;0.045;0.02;0.045;0.045;0.055;0.05;0.03;0.03;0.04;0.045;0.04;0.02;0.015;-0.01;-0.015;0.005;0.035;0.03;0.015;0;0.015;0.025;0.025;0.035;0.025;0.005;0.01;0.04;0.06;0.05;0.04;0.03;0.03;0.03;0.045;0.03;0.015;0.005;0;0.015;0.025;0.03;0.02;0.015;0.025;0.035;0.025;0.02;0.01;-0.005;0.01;0.03;0.045;0.04;0.025;0.02;0.025;0.025;0.045;0.04;0.025;0;0.015;0.02;0.035;0.035;0.025;0.01;0.015;0.02;0.05;0.035;0.045;0.02;0.01;0.025;0.04;0.04;0.045;0.03;0.02;0.025;0.04;0.03;0.01;0.005;0.015;0.04;0.05;0.055;0.06;0.06;0.09;0.11;0.135;0.135;0.11;0.095;0.09;0.1;0.1;0.09;0.07;0.04;0.035;0.045;0.055;0.04;0.025;0.015;0.02;0.03;0.045;0.02;0.015;0.01;0.025;0.04;0.045;0.035;0.01;0;0;0.025;0.03;0.02;0.01;-0.005;0.005;0.005;0.005;-0.045;-0.05;-0.05;-0.06;-0.07;-0.02;0.055;0.135;0.2;0.28;0.34;0.365;0.33;0.24;0.115;-0.005;-0.115;-0.175;-0.225;-0.205;-0.14;-0.085;-0.035;-0.01;0.005;0;-0.02;-0.01;0.005;0.035;0.025;0.02;0.005;0.02;0.015;0.04;0.025;0.015;0.015;0.015;0.03;0.05;0.04;0.035;0.02;0.035;0.035;0.055;0.055;0.025;0.025;0.025;0.03;0.04;0.03;0.035;0.015;0.025;0.04;0.055;0.06;0.045;0.035;0.03;0.025;0.035;0.025;0.025;0.005;0.005;0.02;0.035;0.02;0.015;0;-0.01;-0.005;0.015;0.02;-0.005;-0.005;0;0.02;0.02;0.03;0.005;-0.01;-0.01;-0.005;-0.005;-0.015;-0.035;-0.03;-0.025;-0.01;-0.005;-0.01;-0.025;-0.04;-0.06;-0.04;-0.025;-0.025;-0.04;-0.065;-0.05;-0.025;-0.015;-0.025;-0.02;-0.035;-0.025;-0.02;-0.01;-0.005;-0.02;-0.02;-0.02;0.005;0.01;0.015;0;-0.01;0;0.025;0.03;0.005;-0.01;-0.02;-0.015;0;0.015;0.015;0;-0.015;0.005;0.02;0.015;0.02;0.01;0;-0.005;0.01;0.005;-0.005;-0.015;-0.015;-0.01;0;0.01;0.02;0.01;0.005;0.025;0.03;0.045;0.025;0;-0.01;0.01;0.02;0.035;0.03;0.02;0.015;0.015;0.015;0.025;0.025;0.01;0.01;0.01;0.035;0.045;0.045;0.035;0.03;0.015;0.02;0.015;0.015;0.01;0;0.005;0.015;0.025;0.02;0.01;0;0;0.005;0.02;0.005;0.005;-0.02;-0.005;0.015;0.03;0.035;0.005;-0.005;-0.015;-0.005;0.015;-0.01;0;-0.005;-0.005;0.015;0.025;0.02;0.005;-0.01;0.005;0.015;0.005;0.005;-0.01;-0.025;-0.015;-0.01;0.01;-0.005;-0.005;-0.015;-0.01;0;0;0;-0.01;-0.01;-0.005;-0.005;0.01;0.005;0;-0.015;-0.02;-0.025;-0.01;-0.02;-0.035;-0.045;-0.025;-0.005;0;-0.01;-0.015;-0.025;-0.025;-0.005;0.01;-0.005;-0.035;-0.045;-0.035;-0.025;-0.01;-0.025;-0.02;-0.03;-0.035;-0.02;0;-0.01;-0.015;-0.035;-0.035;-0.01;-0.005;-0.005;-0.03;-0.045;-0.05;-0.03;-0.005;-0.015;-0.02;-0.05;-0.055;-0.04;-0.025;-0.02;-0.025;-0.05;-0.045;-0.03;-0.02;-0.015;-0.005;-0.03;-0.03;-0.025;-0.015;-0.03;-0.04;-0.04;-0.035;-0.015;-0.02;-0.015;-0.03;-0.035;-0.04;-0.025;-0.02;-0.02;-0.005;-0.005;0.005;0.01;0.01;-0.01;-0.05;-0.08;-0.085;-0.055;-0.04;-0.035;-0.035;-0.04;-0.045;-0.04;-0.025;-0.015;-0.02;-0.025;-0.025;-0.01;-0.01;-0.02;-0.035;-0.045;-0.045;-0.045;-0.03;-0.04;-0.03;-0.035;-0.03;-0.025;-0.015;-0.045;-0.06;-0.09;-0.095;-0.085;-0.05;-0.055;-0.075;-0.04;0.04;0.125;0.195;0.24;0.26;0.22;0.165;0.075;-0.02;-0.13;-0.22;-0.28;-0.255;-0.215;-0.14;-0.1;-0.08;-0.04;-0.035;-0.03;-0.035;-0.035;-0.035;-0.05;-0.045;-0.025;-0.01;-0.015;-0.03;-0.05;-0.035;-0.025;-0.005;0;-0.005;-0.01;0;-0.005;-0.005;-0.005;-0.035;-0.035;-0.04;-0.02;-0.01;0;0;-0.01;-0.025;0;0;-0.005;-0.005;-0.03;-0.02;-0.02;-0.015;-0.015;-0.015;-0.025;-0.01;0;0.005;0;-0.015;-0.035;-0.025;-0.015;0;0;-0.005;-0.02;-0.005;-0.005;-0.005;-0.01;-0.015;-0.025;-0.035;-0.02;-0.015;-0.035;-0.045;-0.05;-0.055;-0.045;-0.03;-0.04;-0.04;-0.06;-0.045;-0.035;-0.025;-0.05;-0.06;-0.08;-0.075;-0.055;-0.05;-0.065;-0.075;-0.07;-0.075;-0.06;-0.03;-0.04;-0.045;-0.04;-0.05;-0.04;-0.025;-0.03;-0.035;-0.03;-0.015;-0.01;0;-0.025;-0.025;-0.035;-0.035;-0.015;0.005;-0.01;-0.015;-0.02;-0.015;-0.02;-0.005;-0.025;-0.025;-0.04;-0.04;-0.025;-0.005;-0.01;-0.01;-0.025;-0.015;-0.005;0.005;0;-0.02;-0.02;-0.015;0;0.015;0;-0.005;-0.01;-0.025;-0.005;0.015;0.01;0;0;0.015;0.03;0.035;0.035;0.02;0.02;0.01;0.015;0.015;0.015;0.005;-0.005;-0.01;0.015;0.03;0.025;0.02;0.01;0.01;0.015;0.025;0.015;0.005;0;0.005;0.015;0.015;0;0;-0.005;-0.005;0.01;0.025;0.01;-0.005;-0.02;-0.015;0;0.015;0.01;-0.005;-0.015;-0.01;0;0;-0.005;-0.005;-0.025;-0.025;-0.01;0.005;0;0.005;-0.02;0.005;0.005;0.02;0;-0.02;-0.03;-0.025;-0.005;0.015;0.005;0;-0.015;-0.005;0;0.005;0;-0.01;-0.025;-0.015;0.01;0.01;0.01;-0.01;-0.02;-0.01;-0.015;0.015;0;0;-0.025;-0.025;-0.01;0.005;0;-0.01;-0.02;0.005;-0.01;0.015;0.01;-0.005;-0.005;-0.015;0;0.01;0;0;-0.005;-0.01;0.005;0.01;0.005;-0.005;-0.02;0;0.005;0.02;0.02;0.03;0.01;-0.005;0.015;0.02;0;-0.005;-0.015;0.005;0;0.025;0.02;0.005;-0.005;-0.01;0.01;0.035;0.01;0.015;0.005;0.02;0.02;0.025;0.005;-0.02;-0.035;-0.01;0.02;0.035;0.035;0.01;0.005;0.015;0.01;0.035;0.025;0;-0.005;-0.005;0.01;0.04;0.015;0.015;0;0.01;0.02;0.055;0.07;0.07;0.065;0.045;0.05;0.045;0.015;-0.015;-0.03;-0.015;0.01;0.04;0.05;0.045;0.015;-0.02;-0.02;-0.01;0;-0.005;-0.005;0.01;0.03;0.045;0.015;0.005;-0.005;0.01;0.02;0.03;0.03;0.03;0.015;0.01;0.015;0.025;0.01;-0.005;-0.025;-0.035;-0.04;-0.015;-0.015;-0.02;-0.035;0.02;0.125;0.23;0.295;0.33;0.325;0.3;0.24;0.145;0.025;-0.105;-0.19;-0.215;-0.17;-0.115;-0.07;-0.05;-0.03;-0.005;0.01;0.015;0.01;0.015;0.005;0.01;0.035;0.055;0.03;0.035;0.035;0.04;0.045;0.055;0.055;0.04;0.035;0.04;0.05;0.05;0.025;0.025;0.005;0.03;0.04;0.05;0.04;0.035;0.02;0.02;0.045;0.065;0.045;0.035;0.025;0.02;0.04;0.05;0.045;0.05;0.035;0.03;0.03;0.045;0.03;0.035;0.02;0.015;0.02;0.05;0.035;0.03;0.025;0.02;0.055;0.045;0.04;0.025;0.02;0.01;0.025;0.035;0.025;0.02;0.005;0.01;0.015;0.035;0.02;0.015;0;-0.015;-0.01;0;-0.005;-0.025;-0.035;-0.03;-0.015;-0.005;-0.015;-0.035;-0.035;-0.035;-0.025;-0.005;-0.01;-0.005;-0.015;-0.015;-0.01;0;0.005;-0.01;-0.025;-0.005;0;0.025;0.02;0.01;0.005;0.005;0.01;0.025;0.025;0.02;0.005;0.005;0.01;0.025;0.025;0.02;-0.005;-0.01;0.015;0.02;0.01;0.02;-0.005;0.015;0.025;0.045;0.03;0.035;0.015;0.01;0.01;0.02;0.01;0.015;0;0;0.02;0.04;0.04;0.025;0.005;0.015;0.025;0.04;0.04;0.035;0.03;0.025;0.035;0.045;0.055;0.045;0.03;0.035;0.05;0.065;0.055;0.04;0.05;0.045;0.07;0.065;0.06;0.035;0.01;0.015;0.035;0.05;0.05;0.04;0.02;0.03;0.055;0.05;0.055;0.03;0.025;0.02;0.035;0.04;0.045;0.035;0.02;0.025;0.045;0.055;0.06;0.055;0.04;0.025;0.035;0.045;0.05;0.045;0.035;0.04;0.035;0.035;0.03;0.015;0.005;0.02;0.025;0.03;0.015;0.015;0.01;0.005;0.025;0.035;0.035;0.035;0.025;0.035;0.03;0.045;0.02;0.005;-0.005;-0.01;0.01;0.015;0.02;0.025;0.01;0.01;0.025;0.04;0.025;0.03;0.025;0.015;0.02;0.035;0.035;0.03;0;0;0.015;0.035;0.035;0.025;0.02;0.01;0.035;0.035;0.03;0.04;0.025;0.03;0.04;0.055;0.04;0.01;-0.015;-0.02;-0.005;0.005;0;-0.01;-0.005;-0.015;0.01;0.02;0.03;0.025;0.005;0.01;0.015;0.04;0.02;0.015;0.005;0.005;0.015;0.04;0.025;0;0;0.005;0.025;0.03;0.02;0.015;0.015;0.015;0.015;0.025;0.015;0.01;0.01;0.015;0.03;0.04;0.04;0.025;0.005;0.015;0.03;0.03;0.04;0.01
6;0;-0.645;-0.625;-0.615;-0.605;-0.585;-0.585;-0.565;-0.545;-0.54;-0.52;-0.515;-0.52;-0.515;-0.52;-0.53;-0.535;-0.54;-0.545;-0.515;-0.505;-0.495;-0.48;-0.48;-0.49;-0.485;-0.49;-0.5;-0.495;-0.515;-0.505;-0.505;-0.495;-0.495;-0.5;-0.485;-0.49;-0.49;-0.48;-0.49;-0.495;-0.49;-0.495;-0.475;-0.47;-0.465;-0.44;-0.445;-0.455;-0.44;-0.465;-0.47;-0.48;-0.465;-0.465;-0.455;-0.46;-0.465;-0.44;-0.44;-0.435;-0.45;-0.44;-0.455;-0.45;-0.44;-0.445;-0.435;-0.415;-0.41;-0.39;-0.385;-0.385;-0.385;-0.405;-0.41;-0.41;-0.415;-0.415;-0.42;-0.4;-0.41;-0.39;-0.39;-0.405;-0.41;-0.41;-0.405;-0.425;-0.425;-0.43;-0.43;-0.43;-0.43;-0.41;-0.405;-0.415;-0.43;-0.44;-0.445;-0.46;-0.475;-0.475;-0.47;-0.46;-0.46;-0.43;-0.42;-0.445;-0.435;-0.435;-0.465;-0.485;-0.475;-0.48;-0.49;-0.48;-0.465;-0.47;-0.445;-0.465;-0.465;-0.485;-0.495;-0.505;-0.51;-0.515;-0.505;-0.51;-0.49;-0.485;-0.47;-0.465;-0.465;-0.465;-0.49;-0.495;-0.5;-0.515;-0.495;-0.495;-0.49;-0.48;-0.47;-0.485;-0.48;-0.495;-0.495;-0.515;-0.515;-0.52;-0.515;-0.5;-0.49;-0.48;-0.465;-0.47;-0.47;-0.5;-0.5;-0.51;-0.52;-0.535;-0.51;-0.505;-0.505;-0.5;-0.485;-0.51;-0.51;-0.51;-0.54;-0.52;-0.525;-0.525;-0.53;-0.505;-0.49;-0.49;-0.475;-0.485;-0.48;-0.495;-0.51;-0.515;-0.53;-0.53;-0.515;-0.515;-0.51;-0.51;-0.52;-0.51;-0.51;-0.52;-0.51;-0.53;-0.52;-0.525;-0.51;-0.505;-0.49;-0.5;-0.49;-0.5;-0.51;-0.495;-0.515;-0.52;-0.525;-0.545;-0.545;-0.54;-0.535;-0.525;-0.515;-0.52;-0.495;-0.52;-0.53;-0.53;-0.53;-0.53;-0.535;-0.525;-0.515;-0.52;-0.495;-0.515;-0.5;-0.52;-0.53;-0.535;-0.53;-0.525;-0.51;-0.49;-0.48;-0.46;-0.43;-0.435;-0.42;-0.41;-0.41;-0.415;-0.41;-0.405;-0.41;-0.405;-0.41;-0.43;-0.435;-0.475;-0.49;-0.52;-0.535;-0.555;-0.545;-0.585;-0.58;-0.585;-0.575;-0.565;-0.55;-0.55;-0.545;-0.54;-0.55;-0.58;-0.575;-0.58;-0.575;-0.585;-0.575;-0.575;-0.575;-0.565;-0.575;-0.575;-0.6;-0.6;-0.615;-0.64;-0.62;-0.6;-0.595;-0.585;-0.575;-0.565;-0.57;-0.59;-0.58;-0.59;-0.595;-0.59;-0.59;-0.57;-0.55;-0.485;-0.445;-0.395;-0.35;-0.34;-0.385;-0.495;-0.605;-0.805;-1.015;-1.225;-1.425;-1.555;-1.615;-1.62;-1.585;-1.51;-1.445;-1.37;-1.27;-1.18;-1.075;-0.955;-0.885;-0.795;-0.72;-0.67;-0.635;-0.605;-0.59;-0.575;-0.59;-0.585;-0.56;-0.545;-0.525;-0.505;-0.49;-0.49;-0.485;-0.47;-0.495;-0.505;-0.51;-0.51;-0.5;-0.5;-0.48;-0.475;-0.475;-0.45;-0.47;-0.475;-0.49;-0.495;-0.505;-0.51;-0.51;-0.515;-0.48;-0.465;-0.455;-0.45;-0.445;-0.45;-0.475;-0.48;-0.495;-0.485;-0.47;-0.485;-0.49;-0.465;-0.465;-0.47;-0.48;-0.48;-0.49;-0.5;-0.505;-0.505;-0.505;-0.48;-0.47;-0.465;-0.45;-0.455;-0.46;-0.44;-0.455;-0.465;-0.47;-0.47;-0.47;-0.465;-0.455;-0.45;-0.45;-0.455;-0.455;-0.46;-0.475;-0.485;-0.49;-0.49;-0.485;-0.475;-0.445;-0.455;-0.445;-0.44;-0.45;-0.465;-0.465;-0.49;-0.495;-0.495;-0.505;-0.495;-0.495;-0.49;-0.5;-0.495;-0.5;-0.505;-0.515;-0.53;-0.53;-0.52;-0.515;-0.505;-0.49;-0.46;-0.46;-0.46;-0.45;-0.47;-0.46;-0.48;-0.48;-0.49;-0.48;-0.46;-0.45;-0.465;-0.465;-0.455;-0.475;-0.465;-0.5;-0.51;-0.505;-0.51;-0.505;-0.495;-0.485;-0.465;-0.45;-0.45;-0.465;-0.485;-0.5;-0.505;-0.51;-0.52;-0.51;-0.5;-0.48;-0.495;-0.475;-0.485;-0.475;-0.49;-0.49;-0.5;-0.505;-0.5;-0.5;-0.49;-0.48;-0.48;-0.455;-0.465;-0.475;-0.48;-0.475;-0.475;-0.505;-0.495;-0.495;-0.49;-0.495;-0.485;-0.49;-0.495;-0.485;-0.495;-0.515;-0.5;-0.51;-0.51;-0.505;-0.49;-0.49;-0.48;-0.49;-0.49;-0.48;-0.485;-0.5;-0.505;-0.51;-0.53;-0.545;-0.545;-0.525;-0.51;-0.505;-0.515;-0.5;-0.51;-0.52;-0.525;-0.525;-0.535;-0.53;-0.525;-0.505;-0.5;-0.51;-0.515;-0.52;-0.525;-0.53;-0.55;-0.565;-0.565;-0.565;-0.56;-0.55;-0.525;-0.525;-0.51;-0.505;-0.515;-0.535;-0.52;-0.525;-0.535;-0.515;-0.535;-0.505;-0.51;-0.48;-0.485;-0.485;-0.5;-0.5;-0.505;-0.505;-0.495;-0.465;-0.465;-0.435;-0.42;-0.415;-0.395;-0.39;-0.39;-0.42;-0.435;-0.47;-0.5;-0.505;-0.535;-0.53;-0.53;-0.535;-0.53;-0.53;-0.56;-0.57;-0.575;-0.59;-0.575;-0.57;-0.555;-0.535;-0.525;-0.53;-0.515;-0.53;-0.55;-0.57;-0.555;-0.575;-0.585;-0.585;-0.585;-0.57;-0.55;-0.555;-0.55;-0.54;-0.56;-0.56;-0.575;-0.59;-0.59;-0.57;-0.555;-0.545;-0.545;-0.54;-0.525;-0.525;-0.535;-0.525;-0.545;-0.525;-0.485;-0.425;-0.36;-0.34;-0.335;-0.38;-0.475;-0.635;-0.835;-1.06;-1.275;-1.45;-1.56;-1.58;-1.545;-1.48;-1.41;-1.32;-1.22;-1.125;-1.045;-0.955;-0.895;-0.83;-0.77;-0.695;-0.645;-0.59;-0.57;-0.56;-0.545;-0.54;-0.525;-0.55;-0.54;-0.545;-0.525;-0.515;-0.51;-0.49;-0.485;-0.465;-0.475;-0.475;-0.48;-0.495;-0.505;-0.505;-0.515;-0.505;-0.5;-0.49;-0.485;-0.46;-0.47;-0.48;-0.47;-0.485;-0.48;-0.505;-0.49;-0.49;-0.48;-0.465;-0.47;-0.445;-0.46;-0.455;-0.47;-0.475;-0.495;-0.505;-0.51;-0.495;-0.495;-0.485;-0.495;-0.48;-0.465;-0.475;-0.475;-0.465;-0.485;-0.475;-0.48;-0.475;-0.465;-0.455;-0.45;-0.45;-0.445;-0.435;-0.46;-0.47;-0.47;-0.495;-0.495;-0.47;-0.475;-0.48;-0.45;-0.45;-0.46;-0.445;-0.455;-0.46;-0.475;-0.485;-0.485;-0.48;-0.49;-0.48;-0.47;-0.465;-0.465;-0.485;-0.47;-0.495;-0.505;-0.52;-0.545;-0.53;-0.52;-0.5;-0.49;-0.48;-0.47;-0.475;-0.465;-0.475;-0.47;-0.49;-0.485;-0.485;-0.475;-0.465;-0.465;-0.455;-0.465;-0.475;-0.47;-0.485;-0.505;-0.505;-0.51;-0.52;-0.505;-0.5;-0.48;-0.48;-0.475;-0.475;-0.47;-0.485;-0.49;-0.495;-0.5;-0.5;-0.49;-0.49;-0.485;-0.475;-0.48;-0.48;-0.495;-0.51;-0.52;-0.515;-0.515;-0.505;-0.5;-0.505;-0.49;-0.48;-0.48;-0.49;-0.495;-0.51;-0.52;-0.525;-0.525;-0.515;-0.51;-0.495;-0.495;-0.49;-0.49;-0.5;-0.51;-0.52;-0.515;-0.545;-0.525;-0.52;-0.525;-0.515;-0.495;-0.495;-0.495;-0.495;-0.495;-0.505;-0.525;-0.53;-0.525;-0.53;-0.525;-0.52;-0.525;-0.51;-0.49;-0.5;-0.495;-0.52;-0.51;-0.53;-0.525;-0.52;-0.515;-0.515;-0.51;-0.5;-0.495;-0.495;-0.5;-0.515;-0.52;-0.52;-0.545;-0.545;-0.525;-0.52;-0.51;-0.515;-0.515;-0.505;-0.51;-0.515;-0.515;-0.53;-0.545;-0.525;-0.525;-0.51;-0.51;-0.5;-0.49;-0.495;-0.5;-0.52;-0.53;-0.53;-0.53;-0.525;-0.5;-0.485;-0.475;-0.465;-0.44;-0.43;-0.43;-0.425;-0.435;-0.43;-0.42;-0.43;-0.405;-0.405;-0.415;-0.43;-0.44;-0.465;-0.5;-0.525;-0.54;-0.565;-0.575;-0.565;-0.57;-0.555;-0.56;-0.55;-0.535;-0.53;-0.535;-0.535;-0.54;-0.56;-0.585;-0.58;-0.565;-0.56;-0.55;-0.54;-0.545;-0.55;-0.565;-0.58;-0.585;-0.605;-0.61;-0.585;-0.58;-0.55;-0.565;-0.54;-0.52;-0.53;-0.535;-0.55;-0.555;-0.56;-0.585;-0.56;-0.54;-0.53;-0.51;-0.445;-0.39;-0.325;-0.305;-0.34;-0.415;-0.545;-0.755;-0.98;-1.215;-1.42;-1.555;-1.605;-1.63;-1.585;-1.505;-1.44;-1.36;-1.275;-1.175;-1.075;-0.97;-0.895;-0.825;-0.73;-0.67;-0.65;-0.615;-0.595;-0.575;-0.58;-0.57;-0.56;-0.545;-0.52;-0.52;-0.485;-0.47;-0.48;-0.475;-0.495;-0.49;-0.5;-0.51;-0.51;-0.48;-0.48;-0.475;-0.47;-0.48;-0.465;-0.475;-0.49;-0.49;-0.49;-0.5;-0.5;-0.475;-0.475;-0.455;-0.445;-0.44;-0.44;-0.44;-0.455;-0.46;-0.465;-0.455;-0.46;-0.44;-0.445;-0.43;-0.415;-0.425;-0.43;-0.44;-0.445;-0.445;-0.445;-0.46;-0.435;-0.435;-0.43;-0.4;-0.41;-0.39;-0.4;-0.405;-0.415;-0.405;-0.435;-0.42;-0.415;-0.4;-0.395;-0.38;-0.39;-0.375;-0.39;-0.385;-0.385;-0.39;-0.4;-0.365;-0.39;-0.385;-0.36;-0.36;-0.345;-0.34;-0.35;-0.335;-0.38;-0.375;-0.385;-0.39;-0.395;-0.39;-0.385;-0.385;-0.39;-0.37;-0.395;-0.405;-0.415;-0.4;-0.415;-0.405;-0.395;-0.395;-0.39;-0.4;-0.38;-0.365;-0.375;-0.38;-0.4;-0.395;-0.42;-0.43;-0.43;-0.43;-0.43;-0.44;-0.41;-0.425;-0.435;-0.445;-0.455;-0.46;-0.485;-0.47;-0.485;-0.475;-0.465;-0.45;-0.45;-0.44;-0.45;-0.455;-0.465;-0.465;-0.485;-0.485;-0.49;-0.5;-0.5;-0.47;-0.47;-0.45;-0.455;-0.47;-0.46;-0.465;-0.485;-0.48;-0.475;-0.465;-0.465;-0.46;-0.45;-0.445;-0.445;-0.46;-0.465;-0.475;-0.485;-0.49;-0.485;-0.49;-0.49;-0.46;-0.45;-0.455;-0.44;-0.435;-0.45;-0.455;-0.46;-0.465;-0.48;-0.47;-0.455;-0.455;-0.435;-0.42;-0.43;-0.465;-0.46;-0.475;-0.48;-0.495;-0.5;-0.485;-0.455;-0.465;-0.44;-0.435;-0.43;-0.44;-0.45;-0.465;-0.46;-0.465;-0.455;-0.48;-0.465;-0.445;-0.45;-0.435;-0.44;-0.44;-0.46;-0.475;-0.475;-0.49;-0.49;-0.495;-0.465;-0.465;-0.46;-0.43;-0.435;-0.42;-0.445;-0.45;-0.46;-0.47;-0.48;-0.48;-0.455;-0.465;-0.44;-0.425;-0.45;-0.45;-0.44;-0.475;-0.485;-0.48;-0.49;-0.48;-0.465;-0.455;-0.455;-0.43;-0.44;-0.43;-0.43;-0.435;-0.43;-0.43;-0.43;-0.415;-0.385;-0.365;-0.365;-0.34;-0.34;-0.345;-0.35;-0.35;-0.375;-0.4;-0.4;-0.425;-0.45;-0.465;-0.465;-0.47;-0.465;-0.465;-0.49;-0.495;-0.51;-0.52;-0.5;-0.52;-0.51;-0.485;-0.49;-0.485;-0.485;-0.495;-0.51;-0.535;-0.55;-0.555;-0.55;-0.545;-0.525;-0.525;-0.505;-0.485;-0.49;-0.495;-0.515;-0.525;-0.53;-0.525;-0.52;-0.52;-0.51;-0.515;-0.505;-0.485;-0.505;-0.51;-0.51;-0.53;-0.54;-0.53;-0.515;-0.455;-0.395;-0.335;-0.3;-0.28;-0.34;-0.47;-0.635;-0.86;-1.13;-1.365;-1.525;-1.63;-1.63;-1.56;-1.505;-1.39;-1.305;-1.205;-1.1;-1.015;-0.94;-0.85;-0.795;-0.715;-0.62;-0.565;-0.535;-0.505;-0.5;-0.505;-0.505;-0.505;-0.52;-0.51;-0.5;-0.485;-0.485;-0.47;-0.455;-0.455;-0.46;-0.465;-0.47;-0.47;-0.475;-0.465;-0.47;-0.455;-0.455;-0.445;-0.41;-0.42;-0.415;-0.42;-0.435;-0.445;-0.445;-0.445;-0.45;-0.45;-0.43;-0.43;-0.42;-0.405;-0.43;-0.43;-0.44;-0.445;-0.455;-0.46;-0.46;-0.455;-0.43;-0.42;-0.405;-0.405;-0.395;-0.405;-0.395;-0.415;-0.42;-0.43;-0.43;-0.44;-0.42;-0.4;-0.41;-0.4;-0.41;-0.41;-0.425;-0.425;-0.445;-0.435;-0.425;-0.415;-0.395;-0.405;-0.385;-0.37;-0.375;-0.38;-0.4;-0.395;-0.42;-0.43;-0.425;-0.43;-0.42;-0.425;-0.415;-0.415;-0.41;-0.435;-0.44;-0.46;-0.48;-0.465;-0.465;-0.465;-0.45;-0.455;-0.43;-0.425;-0.42;-0.43;-0.445;-0.465;-0.45;-0.455;-0.45;-0.44;-0.44;-0.425;-0.42;-0.4;-0.43;-0.425;-0.42;-0.435;-0.43;-0.435;-0.435;-0.435;-0.42;-0.42;-0.42;-0.405;-0.415;-0.44;-0.44;-0.46;-0.455;-0.46;-0.47;-0.475;-0.465;-0.46;-0.465;-0.44;-0.44;-0.445;-0.47;-0.45;-0.465;-0.47;-0.45;-0.47;-0.44;-0.44;-0.435;-0.425;-0.43;-0.455;-0.45;-0.465;-0.465;-0.485;-0.49;-0.48;-0.465;-0.475;-0.455;-0.445;-0.44;-0.45;-0.45;-0.46;-0.46;-0.48;-0.46;-0.47;-0.475;-0.455;-0.45;-0.44;-0.45;-0.455;-0.465;-0.465;-0.49;-0.48;-0.49;-0.5;-0.495;-0.48;-0.48;-0.45;-0.45;-0.465;-0.465;-0.465;-0.485;-0.485;-0.48;-0.485;-0.48;-0.485;-0.465;-0.465;-0.465;-0.485;-0.515;-0.515;-0.52;-0.515;-0.5;-0.495;-0.495;-0.49;-0.48;-0.47;-0.465;-0.46;-0.485;-0.495;-0.495;-0.495;-0.505;-0.495;-0.485;-0.485;-0.48;-0.465;-0.455;-0.48;-0.485;-0.48;-0.475;-0.485;-0.48;-0.46;-0.44;-0.43;-0.4;-0.375;-0.375;-0.39;-0.37;-0.41;-0.42;-0.43;-0.46;-0.5;-0.505;-0.5;-0.52;-0.51;-0.52;-0.515;-0.55;-0.545;-0.55;-0.555;-0.55;-0.53;-0.525;-0.51;-0.495;-0.5;-0.51;-0.52;-0.52;-0.53;-0.54;-0.545;-0.555;-0.555;-0.57;-0.53;-0.545;-0.53;-0.55;-0.545;-0.545;-0.56;-0.555;-0.57;-0.57;-0.565;-0.54;-0.535;-0.525;-0.53;-0.505;-0.515;-0.51;-0.525;-0.5;-0.49;-0.435;-0.4;-0.335;-0.34;-0.39;-0.49;-0.69;-0.905;-1.135;-1.335;-1.465;-1.52;-1.5;-1.435;-1.365;-1.285;-1.2;-1.11;-1.045;-0.96;-0.885;-0.835;-0.775;-0.715;-0.66;-0.63;-0.585;-0.545;-0.53;-0.52;-0.525;-0.515;-0.505;-0.515;-0.49;-0.49;-0.495;-0.48;-0.47;-0.465;-0.455;-0.44;-0.445;-0.43;-0.44;-0.46;-0.47;-0.475;-0.47;-0.485;-0.475;-0.465;-0.455;-0.44;-0.44;-0.43;-0.45;-0.445;-0.45;-0.465;-0.46;-0.46;-0.45;-0.43;-0.435;-0.42;-0.435;-0.43;-0.44;-0.44;-0.475;-0.47;-0.475;-0.47;-0.46;-0.44;-0.43;-0.425;-0.435;-0.45;-0.435;-0.45;-0.45;-0.44;-0.45;-0.45;-0.44;-0.43;-0.42;-0.42;-0.405;-0.42;-0.435;-0.45;-0.45;-0.47;-0.475;-0.47;-0.445;-0.44;-0.445;-0.42;-0.425;-0.43;-0.44;-0.455;-0.465;-0.49;-0.49;-0.485;-0.475;-0.465;-0.455;-0.455;-0.465;-0.48;-0.48;-0.49;-0.51;-0.515;-0.52;-0.515;-0.495;-0.475;-0.455;-0.445;-0.425;-0.43;-0.455;-0.445;-0.46;-0.455;-0.485;-0.46;-0.455;-0.45;-0.43;-0.415;-0.42;-0.435;-0.445;-0.45;-0.48;-0.475;-0.475;-0.465;-0.46;-0.45;-0.45;-0.42;-0.42;-0.44;-0.445;-0.46;-0.46;-0.47;-0.46;-0.47;-0.475;-0.445;-0.45;-0.44;-0.455;-0.455;-0.455;-0.46;-0.48;-0.47;-0.47;-0.465;-0.445;-0.435;-0.435;-0.435;-0.445;-0.455;-0.47;-0.48;-0.48;-0.505;-0.495;-0.495;-0.495;-0.47;-0.48;-0.465;-0.47;-0.485;-0.475;-0.485;-0.485;-0.505;-0.49;-0.48;-0.46;-0.455;-0.435;-0.44;-0.445;-0.435;-0.45;-0.465;-0.465;-0.475;-0.485;-0.49;-0.465;-0.45;-0.465;-0.45;-0.46;-0.455;-0.47;-0.475;-0.47;-0.47;-0.475;-0.48;-0.455;-0.45;-0.435;-0.435;-0.445;-0.455;-0.45;-0.465;-0.49;-0.49;-0.505;-0.5;-0.48;-0.475;-0.475;-0.46;-0.47;-0.465;-0.475;-0.48;-0.485;-0.5;-0.51;-0.495;-0.5;-0.495;-0.475;-0.47;-0.455;-0.46;-0.47;-0.475;-0.475;-0.495;-0.485;-0.475;-0.47;-0.435;-0.41;-0.42;-0.39;-0.375;-0.38;-0.4;-0.38;-0.395;-0.405;-0.415;-0.435;-0.455;-0.475;-0.465;-0.47;-0.485;-0.5;-0.515;-0.555;-0.57;-0.57;-0.575;-0.555;-0.535;-0.52;-0.5;-0.515;-0.505;-0.515;-0.525;-0.53;-0.545;-0.545;-0.555;-0.535;-0.54;-0.515;-0.52;-0.515;-0.52;-0.535;-0.535;-0.545;-0.54;-0.545;-0.535;-0.535;-0.525;-0.505;-0.5;-0.5;-0.495;-0.505;-0.495;-0.495;-0.48;-0.415;-0.355;-0.295;-0.28;-0.31;-0.39;-0.535;-0.745;-0.97;-1.225;-1.415;-1.585;-1.64;-1.64;-1.595;-1.495;-1.415;-1.33;-1.25;-1.145;-1.075;-0.965;-0.885;-0.825;-0.755;-0.685;-0.64;-0.575;-0.535;-0.51;-0.49;-0.49;-0.49;-0.49;-0.49;-0.51;-0.49;-0.49;-0.475;-0.45;-0.445;-0.42;-0.405;-0.41;-0.4;-0.44;-0.44;-0.425;-0.44;-0.43;-0.435;-0.41;-0.405;-0.395;-0.405;-0.41;-0.405;-0.42;-0.45;-0.425;-0.435;-0.435;-0.405;-0.395;-0.385;-0.36;-0.375;-0.37;-0.37;-0.395;-0.405;-0.405;-0.415;-0.41;-0.39;-0.38;-0.375;-0.38;-0.375;-0.37;-0.39;-0.4;-0.375;-0.395;-0.38;-0.375;-0.37;-0.35;-0.355;-0.335;-0.335;-0.335;-0.33;-0.33;-0.35;-0.35;-0.365;-0.355;-0.345;-0.345;-0.34;-0.335;-0.325;-0.32;-0.34;-0.34;-0.35;-0.365;-0.36;-0.345;-0.35;-0.335;-0.335;-0.33;-0.34;-0.325;-0.34;-0.35;-0.37;-0.38;-0.38;-0.395;-0.385;-0.4;-0.39;-0.39;-0.375;-0.37;-0.375;-0.37;-0.375;-0.395;-0.4;-0.39;-0.395;-0.37;-0.375;-0.375;-0.365;-0.37;-0.39;-0.4;-0.415;-0.41;-0.425;-0.435;-0.435;-0.425;-0.42;-0.425;-0.405;-0.405;-0.42;-0.415;-0.425;-0.435;-0.45;-0.43;-0.44;-0.42;-0.415;-0.4;-0.39;-0.395;-0.405;-0.425;-0.445;-0.445;-0.465;-0.445;-0.43;-0.43;-0.42;-0.43;-0.43;-0.425;-0.425;-0.425;-0.43;-0.44;-0.435;-0.43;-0.43;-0.415;-0.4;-0.41;-0.405;-0.39;-0.405;-0.415;-0.425;-0.445;-0.45;-0.455;-0.425;-0.43;-0.415;-0.415;-0.415;-0.41;-0.42;-0.43;-0.42;-0.45;-0.43;-0.42;-0.415;-0.415;-0.4;-0.395;-0.405;-0.41;-0.435;-0.425;-0.425;-0.445;-0.445;-0.44;-0.445;-0.43;-0.435;-0.425;-0.4;-0.43;-0.41;-0.435;-0.425;-0.445;-0.45;-0.43;-0.43;-0.425;-0.425;-0.405;-0.42;-0.405;-0.425;-0.445;-0.435;-0.46;-0.445;-0.45;-0.46;-0.455;-0.45;-0.43;-0.435;-0.46;-0.44;-0.445;-0.455;-0.45;-0.45;-0.455;-0.44;-0.435;-0.42;-0.41;-0.41;-0.43;-0.43;-0.435;-0.44;-0.45;-0.445;-0.445;-0.445;-0.425;-0.415;-0.405
7;0;-0.415;-0.4;-0.41;-0.41;-0.405;-0.405;-0.39;-0.38;-0.385;-0.395;-0.41;-0.415;-0.43;-0.42;-0.44;-0.43;-0.44;-0.42;-0.41;-0.41;-0.405;-0.395;-0.39;-0.41;-0.405;-0.415;-0.405;-0.425;-0.4;-0.395;-0.4;-0.385;-0.39;-0.38;-0.395;-0.42;-0.43;-0.44;-0.43;-0.43;-0.425;-0.41;-0.39;-0.38;-0.39;-0.37;-0.395;-0.4;-0.39;-0.43;-0.41;-0.405;-0.405;-0.405;-0.385;-0.375;-0.39;-0.39;-0.41;-0.415;-0.425;-0.425;-0.42;-0.42;-0.415;-0.395;-0.38;-0.385;-0.37;-0.39;-0.385;-0.395;-0.39;-0.42;-0.415;-0.43;-0.415;-0.4;-0.405;-0.395;-0.395;-0.42;-0.415;-0.425;-0.46;-0.455;-0.455;-0.45;-0.43;-0.43;-0.41;-0.41;-0.39;-0.385;-0.405;-0.425;-0.415;-0.435;-0.445;-0.42;-0.43;-0.415;-0.4;-0.395;-0.395;-0.385;-0.4;-0.41;-0.4;-0.42;-0.415;-0.41;-0.405;-0.385;-0.365;-0.38;-0.375;-0.365;-0.385;-0.395;-0.405;-0.41;-0.42;-0.42;-0.395;-0.405;-0.385;-0.385;-0.355;-0.375;-0.38;-0.405;-0.395;-0.425;-0.42;-0.42;-0.39;-0.38;-0.375;-0.355;-0.355;-0.37;-0.365;-0.375;-0.375;-0.38;-0.37;-0.345;-0.33;-0.325;-0.295;-0.29;-0.29;-0.29;-0.29;-0.31;-0.31;-0.335;-0.335;-0.355;-0.36;-0.375;-0.38;-0.365;-0.375;-0.385;-0.4;-0.415;-0.415;-0.435;-0.46;-0.46;-0.425;-0.42;-0.405;-0.39;-0.4;-0.4;-0.42;-0.435;-0.44;-0.445;-0.44;-0.445;-0.41;-0.42;-0.4;-0.39;-0.4;-0.41;-0.41;-0.42;-0.44;-0.44;-0.45;-0.445;-0.435;-0.43;-0.415;-0.39;-0.36;-0.33;-0.29;-0.255;-0.24;-0.275;-0.33;-0.42;-0.56;-0.73;-0.945;-1.115;-1.25;-1.35;-1.38;-1.375;-1.33;-1.285;-1.22;-1.135;-1.025;-0.925;-0.855;-0.78;-0.71;-0.635;-0.59;-0.54;-0.5;-0.49;-0.46;-0.455;-0.42;-0.405;-0.395;-0.375;-0.36;-0.37;-0.37;-0.365;-0.37;-0.395;-0.39;-0.385;-0.385;-0.36;-0.36;-0.35;-0.34;-0.345;-0.355;-0.365;-0.35;-0.365;-0.365;-0.355;-0.34;-0.34;-0.31;-0.31;-0.315;-0.305;-0.33;-0.33;-0.34;-0.335;-0.345;-0.345;-0.345;-0.34;-0.31;-0.31;-0.305;-0.31;-0.31;-0.32;-0.315;-0.33;-0.335;-0.32;-0.31;-0.315;-0.295;-0.275;-0.28;-0.27;-0.29;-0.295;-0.33;-0.325;-0.33;-0.33;-0.305;-0.29;-0.29;-0.27;-0.285;-0.29;-0.29;-0.32;-0.31;-0.315;-0.31;-0.32;-0.295;-0.285;-0.27;-0.27;-0.275;-0.265;-0.29;-0.29;-0.295;-0.31;-0.32;-0.31;-0.32;-0.315;-0.31;-0.29;-0.31;-0.315;-0.33;-0.335;-0.34;-0.345;-0.375;-0.36;-0.365;-0.35;-0.35;-0.365;-0.35;-0.37;-0.375;-0.375;-0.385;-0.415;-0.4;-0.41;-0.405;-0.39;-0.385;-0.365;-0.37;-0.365;-0.365;-0.38;-0.38;-0.375;-0.395;-0.37;-0.38;-0.36;-0.355;-0.36;-0.355;-0.37;-0.36;-0.38;-0.395;-0.4;-0.405;-0.39;-0.4;-0.395;-0.37;-0.36;-0.38;-0.365;-0.36;-0.375;-0.385;-0.39;-0.385;-0.38;-0.38;-0.375;-0.365;-0.365;-0.345;-0.365;-0.365;-0.385;-0.395;-0.4;-0.41;-0.4;-0.395;-0.39;-0.39;-0.375;-0.37;-0.365;-0.38;-0.375;-0.37;-0.39;-0.375;-0.37;-0.385;-0.38;-0.37;-0.355;-0.365;-0.36;-0.38;-0.39;-0.405;-0.415;-0.41;-0.405;-0.405;-0.395;-0.395;-0.38;-0.37;-0.37;-0.37;-0.37;-0.395;-0.405;-0.405;-0.39;-0.38;-0.385;-0.39;-0.37;-0.38;-0.38;-0.38;-0.395;-0.425;-0.42;-0.415;-0.425;-0.405;-0.4;-0.4;-0.385;-0.385;-0.37;-0.385;-0.395;-0.39;-0.4;-0.42;-0.41;-0.4;-0.4;-0.39;-0.38;-0.39;-0.39;-0.405;-0.4;-0.43;-0.43;-0.43;-0.435;-0.415;-0.415;-0.405;-0.375;-0.36;-0.365;-0.355;-0.37;-0.375;-0.375;-0.36;-0.355;-0.355;-0.34;-0.33;-0.315;-0.31;-0.3;-0.295;-0.325;-0.35;-0.38;-0.41;-0.43;-0.425;-0.425;-0.42;-0.405;-0.395;-0.405;-0.425;-0.44;-0.445;-0.455;-0.465;-0.455;-0.455;-0.455;-0.455;-0.435;-0.43;-0.45;-0.445;-0.455;-0.465;-0.47;-0.47;-0.48;-0.47;-0.455;-0.435;-0.44;-0.435;-0.435;-0.445;-0.44;-0.45;-0.47;-0.47;-0.475;-0.465;-0.46;-0.43;-0.445;-0.44;-0.43;-0.435;-0.425;-0.41;-0.36;-0.31;-0.29;-0.265;-0.285;-0.335;-0.445;-0.6;-0.8;-1.01;-1.195;-1.33;-1.39;-1.4;-1.345;-1.27;-1.185;-1.105;-1;-0.905;-0.835;-0.785;-0.705;-0.65;-0.59;-0.55;-0.51;-0.475;-0.455;-0.43;-0.42;-0.425;-0.43;-0.415;-0.43;-0.425;-0.43;-0.42;-0.435;-0.42;-0.4;-0.405;-0.4;-0.39;-0.38;-0.395;-0.4;-0.4;-0.405;-0.405;-0.405;-0.41;-0.385;-0.375;-0.36;-0.365;-0.375;-0.375;-0.395;-0.395;-0.4;-0.4;-0.41;-0.4;-0.41;-0.4;-0.39;-0.365;-0.38;-0.375;-0.38;-0.39;-0.395;-0.38;-0.38;-0.385;-0.37;-0.365;-0.365;-0.345;-0.38;-0.37;-0.365;-0.375;-0.395;-0.4;-0.395;-0.41;-0.39;-0.375;-0.37;-0.36;-0.375;-0.365;-0.365;-0.38;-0.38;-0.375;-0.38;-0.38;-0.37;-0.36;-0.345;-0.36;-0.355;-0.38;-0.385;-0.395;-0.405;-0.41;-0.415;-0.415;-0.4;-0.395;-0.39;-0.395;-0.4;-0.395;-0.4;-0.42;-0.44;-0.42;-0.43;-0.425;-0.415;-0.42;-0.4;-0.39;-0.385;-0.385;-0.39;-0.41;-0.43;-0.43;-0.42;-0.4;-0.41;-0.395;-0.395;-0.38;-0.37;-0.385;-0.375;-0.405;-0.405;-0.415;-0.41;-0.415;-0.4;-0.4;-0.41;-0.385;-0.385;-0.405;-0.41;-0.425;-0.42;-0.42;-0.44;-0.41;-0.415;-0.41;-0.39;-0.38;-0.385;-0.4;-0.39;-0.395;-0.4;-0.42;-0.415;-0.42;-0.405;-0.41;-0.405;-0.395;-0.395;-0.405;-0.41;-0.425;-0.435;-0.435;-0.43;-0.44;-0.425;-0.43;-0.415;-0.4;-0.4;-0.415;-0.415;-0.415;-0.425;-0.425;-0.44;-0.43;-0.43;-0.42;-0.42;-0.415;-0.395;-0.415;-0.425;-0.435;-0.445;-0.46;-0.46;-0.435;-0.445;-0.425;-0.42;-0.39;-0.4;-0.395;-0.395;-0.425;-0.425;-0.42;-0.435;-0.445;-0.44;-0.425;-0.41;-0.39;-0.405;-0.405;-0.42;-0.44;-0.45;-0.445;-0.445;-0.435;-0.42;-0.41;-0.41;-0.4;-0.39;-0.405;-0.4;-0.42;-0.425;-0.44;-0.445;-0.445;-0.43;-0.43;-0.415;-0.41;-0.425;-0.42;-0.425;-0.435;-0.45;-0.425;-0.43;-0.425;-0.41;-0.385;-0.37;-0.345;-0.335;-0.33;-0.34;-0.345;-0.335;-0.355;-0.34;-0.35;-0.32;-0.345;-0.345;-0.365;-0.4;-0.43;-0.45;-0.445;-0.47;-0.455;-0.455;-0.44;-0.44;-0.425;-0.42;-0.42;-0.415;-0.425;-0.44;-0.44;-0.455;-0.475;-0.475;-0.48;-0.47;-0.46;-0.445;-0.445;-0.45;-0.45;-0.44;-0.46;-0.46;-0.475;-0.475;-0.465;-0.455;-0.44;-0.43;-0.425;-0.44;-0.445;-0.45;-0.455;-0.465;-0.46;-0.45;-0.42;-0.36;-0.29;-0.245;-0.23;-0.25;-0.345;-0.5;-0.705;-0.945;-1.18;-1.35;-1.45;-1.48;-1.455;-1.395;-1.31;-1.245;-1.145;-1.055;-0.97;-0.9;-0.825;-0.765;-0.705;-0.61;-0.545;-0.505;-0.455;-0.42;-0.42;-0.42;-0.43;-0.415;-0.415;-0.42;-0.42;-0.39;-0.37;-0.37;-0.355;-0.345;-0.365;-0.365;-0.375;-0.38;-0.39;-0.395;-0.395;-0.365;-0.355;-0.355;-0.35;-0.35;-0.345;-0.34;-0.345;-0.37;-0.37;-0.365;-0.365;-0.36;-0.34;-0.355;-0.32;-0.345;-0.35;-0.345;-0.37;-0.37;-0.365;-0.375;-0.375;-0.35;-0.35;-0.325;-0.3;-0.31;-0.31;-0.31;-0.325;-0.345;-0.35;-0.345;-0.33;-0.325;-0.3;-0.295;-0.305;-0.29;-0.295;-0.3;-0.305;-0.315;-0.285;-0.3;-0.285;-0.29;-0.27;-0.265;-0.245;-0.265;-0.265;-0.28;-0.28;-0.3;-0.29;-0.31;-0.31;-0.31;-0.285;-0.3;-0.28;-0.295;-0.29;-0.3;-0.32;-0.32;-0.33;-0.33;-0.325;-0.33;-0.32;-0.325;-0.305;-0.305;-0.32;-0.335;-0.35;-0.365;-0.355;-0.345;-0.36;-0.355;-0.35;-0.335;-0.335;-0.34;-0.345;-0.345;-0.345;-0.375;-0.375;-0.38;-0.38;-0.365;-0.365;-0.365;-0.35;-0.35;-0.365;-0.37;-0.385;-0.395;-0.4;-0.41;-0.4;-0.39;-0.385;-0.385;-0.35;-0.35;-0.345;-0.36;-0.365;-0.375;-0.38;-0.39;-0.385;-0.395;-0.37;-0.38;-0.36;-0.36;-0.38;-0.38;-0.39;-0.4;-0.405;-0.42;-0.43;-0.415;-0.4;-0.39;-0.36;-0.365;-0.38;-0.385;-0.405;-0.4;-0.42;-0.41;-0.42;-0.41;-0.39;-0.38;-0.375;-0.375;-0.375;-0.395;-0.405;-0.415;-0.42;-0.425;-0.425;-0.41;-0.395;-0.375;-0.375;-0.375;-0.375;-0.4;-0.385;-0.395;-0.415;-0.405;-0.405;-0.41;-0.405;-0.395;-0.38;-0.385;-0.405;-0.41;-0.42;-0.425;-0.43;-0.425;-0.415;-0.415;-0.395;-0.38;-0.38;-0.38;-0.39;-0.39;-0.415;-0.425;-0.425;-0.45;-0.42;-0.415;-0.41;-0.405;-0.41;-0.41;-0.41;-0.42;-0.44;-0.43;-0.42;-0.43;-0.4;-0.4;-0.385;-0.355;-0.34;-0.345;-0.33;-0.325;-0.335;-0.345;-0.33;-0.335;-0.33;-0.31;-0.305;-0.31;-0.305;-0.315;-0.34;-0.38;-0.405;-0.445;-0.455;-0.46;-0.445;-0.445;-0.43;-0.415;-0.425;-0.42;-0.43;-0.43;-0.44;-0.435;-0.455;-0.47;-0.46;-0.47;-0.46;-0.445;-0.45;-0.435;-0.45;-0.465;-0.47;-0.48;-0.485;-0.485;-0.475;-0.465;-0.455;-0.44;-0.43;-0.435;-0.44;-0.455;-0.475;-0.48;-0.49;-0.475;-0.475;-0.465;-0.445;-0.435;-0.43;-0.43;-0.385;-0.325;-0.28;-0.245;-0.26;-0.31;-0.41;-0.565;-0.77;-0.99;-1.205;-1.4;-1.53;-1.58;-1.57;-1.51;-1.44;-1.35;-1.215;-1.105;-0.985;-0.895;-0.8;-0.715;-0.65;-0.6;-0.56;-0.51;-0.495;-0.475;-0.455;-0.45;-0.42;-0.4;-0.39;-0.385;-0.395;-0.395;-0.395;-0.39;-0.41;-0.4;-0.41;-0.39;-0.38;-0.37;-0.375;-0.355;-0.38;-0.37;-0.365;-0.38;-0.38;-0.39;-0.37;-0.375;-0.35;-0.355;-0.335;-0.35;-0.35;-0.36;-0.365;-0.39;-0.375;-0.375;-0.38;-0.36;-0.355;-0.355;-0.345;-0.34;-0.34;-0.33;-0.35;-0.35;-0.36;-0.355;-0.35;-0.34;-0.345;-0.335;-0.31;-0.325;-0.32;-0.33;-0.34;-0.34;-0.355;-0.37;-0.36;-0.355;-0.335;-0.33;-0.315;-0.315;-0.32;-0.295;-0.31;-0.31;-0.33;-0.31;-0.325;-0.32;-0.31;-0.305;-0.315;-0.32;-0.325;-0.335;-0.345;-0.355;-0.37;-0.385;-0.385;-0.385;-0.365;-0.35;-0.34;-0.335;-0.335;-0.345;-0.36;-0.37;-0.385;-0.395;-0.38;-0.38;-0.37;-0.375;-0.355;-0.36;-0.355;-0.375;-0.395;-0.395;-0.39;-0.405;-0.41;-0.405;-0.395;-0.385;-0.375;-0.39;-0.375;-0.385;-0.395;-0.405;-0.44;-0.435;-0.43;-0.45;-0.425;-0.42;-0.415;-0.405;-0.415;-0.425;-0.435;-0.44;-0.45;-0.44;-0.445;-0.41;-0.405;-0.4;-0.395;-0.38;-0.395;-0.405;-0.41;-0.42;-0.43;-0.43;-0.43;-0.425;-0.425;-0.41;-0.41;-0.4;-0.4;-0.4;-0.425;-0.43;-0.435;-0.42;-0.415;-0.405;-0.395;-0.38;-0.37;-0.37;-0.38;-0.385;-0.39;-0.4;-0.43;-0.425;-0.42;-0.42;-0.4;-0.4;-0.39;-0.395;-0.39;-0.41;-0.42;-0.42;-0.425;-0.435;-0.425;-0.415;-0.395;-0.39;-0.375;-0.38;-0.4;-0.395;-0.42;-0.425;-0.43;-0.44;-0.43;-0.43;-0.425;-0.42;-0.415;-0.4;-0.4;-0.42;-0.42;-0.42;-0.42;-0.42;-0.42;-0.415;-0.43;-0.415;-0.42;-0.415;-0.425;-0.435;-0.44;-0.44;-0.455;-0.45;-0.455;-0.445;-0.43;-0.43;-0.43;-0.415;-0.405;-0.39;-0.38;-0.38;-0.385;-0.375;-0.385;-0.345;-0.335;-0.325;-0.305;-0.32;-0.34;-0.345;-0.39;-0.41;-0.435;-0.475;-0.475;-0.485;-0.48;-0.48;-0.48;-0.48;-0.47;-0.48;-0.5;-0.475;-0.49;-0.485;-0.49;-0.495;-0.485;-0.465;-0.47;-0.49;-0.485;-0.485;-0.49;-0.505;-0.51;-0.51;-0.5;-0.505;-0.47;-0.475;-0.46;-0.46;-0.45;-0.45;-0.47;-0.475;-0.47;-0.49;-0.465;-0.475;-0.47;-0.445;-0.445;-0.44;-0.43;-0.415;-0.415;-0.375;-0.33;-0.285;-0.265;-0.3;-0.35;-0.45;-0.605;-0.795;-1.015;-1.21;-1.355;-1.415;-1.42;-1.39;-1.32;-1.255;-1.15;-1.045;-0.965;-0.875;-0.81;-0.745;-0.685;-0.625;-0.59;-0.54;-0.51;-0.475;-0.46;-0.445;-0.44;-0.42;-0.41;-0.39;-0.39;-0.41;-0.405;-0.415;-0.41;-0.42;-0.38;-0.39;-0.385;-0.38;-0.38;-0.385;-0.39;-0.395;-0.405;-0.425;-0.41;-0.395;-0.4;-0.37;-0.36;-0.365;-0.37;-0.36;-0.385;-0.395;-0.41;-0.41;-0.405;-0.385;-0.39;-0.36;-0.37;-0.36;-0.375;-0.385;-0.385;-0.41;-0.4;-0.41;-0.4;-0.41;-0.39;-0.365;-0.365;-0.35;-0.365;-0.33;-0.37;-0.39;-0.385;-0.405;-0.4;-0.39;-0.385;-0.37;-0.365;-0.365;-0.375;-0.385;-0.4;-0.405;-0.415;-0.405;-0.41;-0.39;-0.38;-0.385;-0.38;-0.375;-0.4;-0.395;-0.41;-0.42;-0.45;-0.455;-0.435;-0.44;-0.435;-0.415;-0.44;-0.435;-0.445;-0.44;-0.455;-0.47;-0.475;-0.465;-0.45;-0.435;-0.415;-0.395;-0.385;-0.375;-0.375;-0.38;-0.4;-0.405;-0.415;-0.405;-0.4;-0.395;-0.405;-0.385;-0.38;-0.385;-0.38;-0.395;-0.4;-0.425;-0.415;-0.41;-0.42;-0.4;-0.395;-0.39;-0.375;-0.37;-0.385;-0.39;-0.385;-0.42;-0.43;-0.425;-0.425;-0.425;-0.415;-0.42;-0.41;-0.4;-0.4;-0.395;-0.41;-0.395;-0.425;-0.405;-0.41;-0.395;-0.395;-0.385;-0.38;-0.375;-0.385;-0.4;-0.4;-0.405;-0.42;-0.43;-0.43;-0.425;-0.405;-0.395;-0.405;-0.39;-0.385;-0.405;-0.4;-0.4;-0.41;-0.415;-0.41;-0.41;-0.4;-0.41;-0.39;-0.38;-0.38;-0.41;-0.415;-0.43;-0.42;-0.425;-0.445;-0.43;-0.415;-0.42;-0.4;-0.39;-0.41;-0.385;-0.4;-0.415;-0.42;-0.42;-0.42;-0.41;-0.405;-0.42;-0.405;-0.395;-0.39;-0.405;-0.41;-0.435;-0.44;-0.445;-0.43;-0.435;-0.425;-0.415;-0.385;-0.405;-0.41;-0.4;-0.425;-0.42;-0.43;-0.445;-0.445;-0.435;-0.44;-0.415;-0.405;-0.4;-0.405;-0.415;-0.405;-0.415;-0.4;-0.41;-0.39;-0.38;-0.36;-0.345;-0.32;-0.315;-0.315;-0.325;-0.325;-0.35;-0.38;-0.405;-0.435;-0.46;-0.46;-0.47;-0.465;-0.46;-0.46;-0.465;-0.48;-0.5;-0.505;-0.495;-0.515;-0.505;-0.48;-0.47;-0.45;-0.44;-0.445;-0.445;-0.45;-0.465;-0.48;-0.485;-0.5;-0.48;-0.465;-0.445;-0.455;-0.465;-0.455;-0.465;-0.48;-0.47;-0.485;-0.49;-0.48;-0.48;-0.465;-0.445;-0.445;-0.42;-0.42;-0.405;-0.375;-0.345;-0.295;-0.25;-0.24;-0.285;-0.4;-0.53;-0.725;-0.985;-1.195;-1.415;-1.54;-1.58;-1.56;-1.51;-1.415;-1.315;-1.2;-1.07;-0.98;-0.89;-0.815;-0.73;-0.68;-0.625;-0.58;-0.54;-0.505;-0.49;-0.465;-0.445;-0.44;-0.445;-0.435;-0.425;-0.425;-0.43;-0.425;-0.435;-0.42;-0.415;-0.39;-0.375;-0.365;-0.365;-0.375;-0.37;-0.395;-0.395;-0.41;-0.41;-0.42;-0.4;-0.395;-0.385;-0.37;-0.375;-0.385;-0.39;-0.395;-0.4;-0.405;-0.395;-0.4;-0.365;-0.365;-0.365;-0.35;-0.345;-0.355;-0.37;-0.375;-0.375;-0.385;-0.39;-0.395;-0.385;-0.37;-0.36;-0.365;-0.355;-0.36;-0.35;-0.35;-0.335;-0.365;-0.365;-0.36;-0.355;-0.335;-0.335;-0.32;-0.32;-0.305;-0.32;-0.325;-0.335;-0.34;-0.35;-0.35;-0.345;-0.34;-0.325;-0.31;-0.315;-0.315;-0.315;-0.32;-0.33;-0.33;-0.335;-0.34;-0.34;-0.325;-0.32;-0.32;-0.315;-0.32;-0.32;-0.335;-0.345;-0.36;-0.37;-0.39;-0.375;-0.37;-0.36;-0.345;-0.345;-0.345;-0.355;-0.36;-0.365;-0.37;-0.37;-0.35;-0.36;-0.35;-0.345;-0.345;-0.36;-0.345;-0.36;-0.37;-0.38;-0.39;-0.41;-0.405;-0.405;-0.405;-0.38;-0.375;-0.385;-0.385;-0.385;-0.395;-0.41;-0.42;-0.415;-0.405;-0.405;-0.4;-0.4;-0.385;-0.375;-0.375;-0.385;-0.395;-0.4;-0.425;-0.43;-0.425;-0.425;-0.395;-0.39;-0.39;-0.38;-0.375;-0.375;-0.395;-0.41;-0.415;-0.415;-0.4;-0.4;-0.405;-0.39;-0.395;-0.39;-0.39;-0.405;-0.405;-0.415;-0.425;-0.435;-0.43;-0.43;-0.41;-0.42;-0.435;-0.4;-0.395;-0.4;-0.415;-0.41;-0.435;-0.44;-0.43;-0.42;-0.435;-0.425;-0.415;-0.405;-0.405;-0.415;-0.415;-0.435;-0.44;-0.445;-0.44;-0.45;-0.44;-0.435;-0.43;-0.395;-0.41;-0.4;-0.41;-0.41;-0.42;-0.44;-0.425;-0.44;-0.435;-0.43;-0.405;-0.395;-0.41;-0.41;-0.415;-0.43;-0.445;-0.435;-0.45;-0.455;-0.435;-0.44;-0.42;-0.415;-0.405;-0.4;-0.42;-0.43;-0.44;-0.43;-0.44;-0.44;-0.425;-0.43;-0.42;-0.415;-0.405;-0.425;-0.435;-0.445;-0.445;-0.45;-0.45;-0.45;-0.42;-0.4;-0.39;-0.37;-0.36;-0.345;-0.345;-0.35;-0.355;-0.35;-0.36;-0.34;-0.33;-0.35;-0.35;-0.37;-0.39;-0.43;-0.44;-0.475;-0.485;-0.5;-0.495;-0.505;-0.5;-0.5;-0.47;-0.47;-0.47;-0.46;-0.465;-0.48;-0.475;-0.5;-0.485;-0.505;-0.485;-0.49;-0.475;-0.485;-0.49;-0.49;-0.48;-0.495;-0.515;-0.53;-0.525;-0.515;-0.51;-0.49;-0.47;-0.47;-0.465;-0.47;-0.485;-0.49;-0.5;-0.495;-0.495;-0.495;-0.495;-0.465;-0.47;-0.43;-0.39;-0.36;-0.31;-0.285;-0.275;-0.34;-0.465;-0.625;-0.825;-1.055;-1.275;-1.445;-1.57;-1.615;-1.61;-1.55;-1.485;-1.41;-1.305;-1.18;-1.05;-0.945;-0.85;-0.755;-0.695;-0.64;-0.59;-0.55;-0.54;-0.535;-0.53;-0.495;-0.49;-0.455;-0.435;-0.43;-0.425;-0.43
9;0;-0.075;-0.07;-0.085;-0.075;-0.07;-0.065;-0.065;-0.07;-0.085;-0.085;-0.085;-0.06;-0.075;-0.07;-0.08;-0.085;-0.085;-0.075;-0.075;-0.075;-0.09;-0.095;-0.08;-0.07;-0.075;-0.075;-0.09;-0.085;-0.08;-0.075;-0.075;-0.07;-0.09;-0.095;-0.08;-0.07;-0.075;-0.08;-0.085;-0.085;-0.075;-0.07;-0.08;-0.085;-0.085;-0.095;-0.07;-0.075;-0.08;-0.09;-0.095;-0.085;-0.085;-0.075;-0.08;-0.08;-0.095;-0.095;-0.085;-0.07;-0.08;-0.08;-0.095;-0.09;-0.085;-0.09;-0.075;-0.095;-0.1;-0.09;-0.09;-0.075;-0.09;-0.085;-0.1;-0.105;-0.09;-0.085;-0.085;-0.095;-0.095;-0.09;-0.085;-0.07;-0.08;-0.085;-0.095;-0.1;-0.095;-0.08;-0.095;-0.085;-0.105;-0.085;-0.095;-0.08;-0.07;-0.085;-0.09;-0.105;-0.09;-0.08;-0.085;-0.09;-0.105;-0.095;-0.095;-0.085;-0.095;-0.095;-0.1;-0.09;-0.09;-0.08;-0.09;-0.095;-0.09;-0.1;-0.095;-0.09;-0.08;-0.09;-0.095;-0.105;-0.095;-0.085;-0.095;-0.095;-0.105;-0.115;-0.1;-0.09;-0.085;-0.105;-0.11;-0.11;-0.1;-0.09;-0.09;-0.09;-0.1;-0.115;-0.11;-0.1;-0.105;-0.1;-0.11;-0.115;-0.095;-0.095;-0.1;-0.105;-0.12;-0.11;-0.105;-0.085;-0.11;-0.1;-0.105;-0.115;-0.11;-0.1;-0.1;-0.1;-0.105;-0.11;-0.09;-0.08;-0.08;-0.085;-0.08;-0.085;-0.07;-0.065;-0.05;-0.065;-0.07;-0.075;-0.07;-0.065;-0.065;-0.06;-0.08;-0.095;-0.09;-0.09;-0.1;-0.105;-0.145;-0.145;-0.14;-0.145;-0.14;-0.135;-0.15;-0.15;-0.14;-0.135;-0.14;-0.14;-0.145;-0.13;-0.12;-0.095;-0.1;-0.105;-0.105;-0.11;-0.11;-0.1;-0.12;-0.13;-0.115;-0.12;-0.11;-0.105;-0.115;-0.115;-0.125;-0.12;-0.115;-0.105;-0.105;-0.1;-0.12;-0.135;-0.115;-0.105;-0.11;-0.125;-0.13;-0.135;-0.115;-0.105;-0.115;-0.125;-0.13;-0.13;-0.12;-0.105;-0.1;-0.075;-0.075;-0.055;-0.05;-0.025;-0.05;-0.125;-0.22;-0.305;-0.41;-0.51;-0.615;-0.735;-0.865;-0.99;-1.05;-1.045;-0.995;-0.935;-0.865;-0.755;-0.6;-0.455;-0.34;-0.24;-0.19;-0.17;-0.185;-0.19;-0.21;-0.205;-0.185;-0.165;-0.15;-0.135;-0.13;-0.12;-0.135;-0.12;-0.11;-0.11;-0.115;-0.105;-0.105;-0.115;-0.11;-0.1;-0.11;-0.1;-0.105;-0.115;-0.11;-0.1;-0.105;-0.11;-0.12;-0.12;-0.11;-0.105;-0.105;-0.11;-0.115;-0.125;-0.115;-0.1;-0.11;-0.12;-0.125;-0.135;-0.12;-0.125;-0.125;-0.13;-0.14;-0.145;-0.145;-0.13;-0.135;-0.145;-0.15;-0.15;-0.155;-0.15;-0.145;-0.16;-0.18;-0.175;-0.175;-0.16;-0.17;-0.17;-0.19;-0.195;-0.19;-0.19;-0.2;-0.215;-0.235;-0.24;-0.235;-0.235;-0.235;-0.255;-0.27;-0.275;-0.275;-0.27;-0.29;-0.3;-0.305;-0.305;-0.305;-0.305;-0.305;-0.31;-0.33;-0.325;-0.325;-0.3;-0.315;-0.32;-0.32;-0.32;-0.305;-0.29;-0.28;-0.265;-0.255;-0.25;-0.23;-0.205;-0.2;-0.19;-0.185;-0.185;-0.165;-0.15;-0.14;-0.14;-0.135;-0.145;-0.13;-0.12;-0.12;-0.12;-0.12;-0.12;-0.11;-0.105;-0.105;-0.115;-0.125;-0.105;-0.11;-0.095;-0.105;-0.115;-0.115;-0.105;-0.105;-0.095;-0.095;-0.115;-0.11;-0.115;-0.1;-0.095;-0.095;-0.105;-0.115;-0.11;-0.105;-0.09;-0.09;-0.095;-0.105;-0.105;-0.1;-0.08;-0.1;-0.095;-0.1;-0.1;-0.095;-0.085;-0.085;-0.09;-0.105;-0.1;-0.09;-0.08;-0.09;-0.095;-0.095;-0.095;-0.085;-0.085;-0.08;-0.08;-0.095;-0.095;-0.1;-0.085;-0.085;-0.095;-0.1;-0.105;-0.1;-0.075;-0.085;-0.085;-0.105;-0.1;-0.09;-0.085;-0.08;-0.08;-0.105;-0.11;-0.105;-0.08;-0.08;-0.09;-0.105;-0.105;-0.1;-0.08;-0.085;-0.08;-0.095;-0.095;-0.09;-0.08;-0.09;-0.085;-0.105;-0.105;-0.09;-0.085;-0.085;-0.09;-0.1;-0.105;-0.1;-0.08;-0.09;-0.085;-0.09;-0.1;-0.095;-0.085;-0.09;-0.085;-0.1;-0.105;-0.085;-0.09;-0.09;-0.095;-0.1;-0.105;-0.1;-0.09;-0.09;-0.1;-0.11;-0.095;-0.09;-0.08;-0.09;-0.095;-0.1;-0.1;-0.09;-0.09;-0.09;-0.095;-0.095;-0.1;-0.09;-0.08;-0.09;-0.095;-0.11;-0.1;-0.095;-0.08;-0.095;-0.095;-0.11;-0.11;-0.1;-0.09;-0.095;-0.105;-0.1;-0.11;-0.105;-0.08;-0.08;-0.095;-0.11;-0.115;-0.1;-0.09;-0.1;-0.1;-0.115;-0.105;-0.1;-0.09;-0.1;-0.105;-0.11;-0.11;-0.095;-0.09;-0.09;-0.1;-0.12;-0.1;-0.1;-0.09;-0.1;-0.105;-0.105;-0.115;-0.105;-0.09;-0.09;-0.09;-0.11;-0.11;-0.1;-0.085;-0.1;-0.11;-0.11;-0.11;-0.105;-0.1;-0.1;-0.1;-0.105;-0.11;-0.1;-0.1;-0.095;-0.095;-0.115;-0.105;-0.095;-0.1;-0.1;-0.1;-0.11;-0.1;-0.105;-0.09;-0.095;-0.095;-0.105;-0.11;-0.1;-0.09;-0.095;-0.1;-0.095;-0.1;-0.095;-0.095;-0.075;-0.095;-0.1;-0.08;-0.075;-0.06;-0.045;-0.055;-0.05;-0.06;-0.055;-0.05;-0.06;-0.075;-0.08;-0.075;-0.085;-0.07;-0.08;-0.09;-0.125;-0.115;-0.12;-0.115;-0.125;-0.12;-0.14;-0.145;-0.125;-0.115;-0.12;-0.125;-0.115;-0.1;-0.085;-0.07;-0.09;-0.095;-0.105;-0.11;-0.105;-0.08;-0.1;-0.1;-0.105;-0.105;-0.085;-0.095;-0.095;-0.11;-0.1;-0.1;-0.095;-0.085;-0.09;-0.09;-0.1;-0.105;-0.1;-0.09;-0.09;-0.095;-0.1;-0.1;-0.095;-0.085;-0.09;-0.095;-0.1;-0.07;-0.045;-0.025;-0.02;-0.015;-0.055;-0.115;-0.2;-0.3;-0.41;-0.525;-0.655;-0.79;-0.92;-0.99;-0.985;-0.94;-0.875;-0.77;-0.615;-0.445;-0.32;-0.215;-0.14;-0.125;-0.125;-0.145;-0.165;-0.16;-0.15;-0.12;-0.105;-0.08;-0.08;-0.085;-0.07;-0.085;-0.075;-0.065;-0.065;-0.06;-0.07;-0.07;-0.06;-0.05;-0.055;-0.055;-0.065;-0.065;-0.07;-0.05;-0.065;-0.06;-0.075;-0.075;-0.06;-0.045;-0.05;-0.055;-0.065;-0.065;-0.065;-0.05;-0.055;-0.07;-0.07;-0.075;-0.065;-0.055;-0.06;-0.07;-0.08;-0.08;-0.075;-0.085;-0.07;-0.085;-0.09;-0.1;-0.095;-0.095;-0.085;-0.105;-0.105;-0.105;-0.11;-0.105;-0.11;-0.115;-0.13;-0.145;-0.125;-0.13;-0.135;-0.15;-0.16;-0.18;-0.18;-0.16;-0.17;-0.175;-0.19;-0.205;-0.205;-0.2;-0.205;-0.21;-0.225;-0.235;-0.22;-0.215;-0.23;-0.225;-0.24;-0.245;-0.23;-0.22;-0.215;-0.2;-0.215;-0.2;-0.195;-0.17;-0.16;-0.155;-0.155;-0.145;-0.135;-0.125;-0.11;-0.11;-0.11;-0.105;-0.085;-0.07;-0.07;-0.075;-0.08;-0.08;-0.065;-0.05;-0.05;-0.055;-0.07;-0.07;-0.065;-0.045;-0.055;-0.05;-0.055;-0.065;-0.055;-0.06;-0.055;-0.055;-0.065;-0.055;-0.05;-0.05;-0.055;-0.05;-0.06;-0.06;-0.04;-0.035;-0.04;-0.05;-0.06;-0.055;-0.04;-0.03;-0.03;-0.035;-0.04;-0.035;-0.04;-0.025;-0.035;-0.035;-0.045;-0.04;-0.03;-0.025;-0.035;-0.04;-0.045;-0.045;-0.03;-0.02;-0.04;-0.03;-0.055;-0.05;-0.035;-0.02;-0.035;-0.04;-0.04;-0.045;-0.04;-0.03;-0.035;-0.05;-0.055;-0.055;-0.045;-0.03;-0.045;-0.045;-0.055;-0.05;-0.045;-0.025;-0.04;-0.04;-0.05;-0.05;-0.045;-0.035;-0.03;-0.045;-0.055;-0.055;-0.03;-0.035;-0.03;-0.045;-0.055;-0.055;-0.045;-0.035;-0.04;-0.045;-0.055;-0.05;-0.045;-0.03;-0.035;-0.035;-0.055;-0.045;-0.04;-0.025;-0.04;-0.04;-0.045;-0.05;-0.04;-0.03;-0.045;-0.05;-0.05;-0.06;-0.05;-0.04;-0.05;-0.05;-0.06;-0.06;-0.045;-0.04;-0.04;-0.05;-0.065;-0.06;-0.05;-0.04;-0.045;-0.05;-0.055;-0.065;-0.055;-0.045;-0.05;-0.05;-0.06;-0.055;-0.055;-0.045;-0.055;-0.065;-0.06;-0.055;-0.055;-0.04;-0.045;-0.05;-0.065;-0.065;-0.055;-0.045;-0.05;-0.055;-0.06;-0.065;-0.045;-0.05;-0.045;-0.055;-0.065;-0.07;-0.06;-0.05;-0.05;-0.055;-0.07;-0.07;-0.06;-0.05;-0.055;-0.06;-0.07;-0.065;-0.06;-0.055;-0.05;-0.065;-0.065;-0.06;-0.06;-0.04;-0.055;-0.06;-0.07;-0.075;-0.065;-0.055;-0.065;-0.075;-0.075;-0.075;-0.075;-0.06;-0.06;-0.065;-0.09;-0.075;-0.065;-0.06;-0.065;-0.07;-0.08;-0.07;-0.065;-0.06;-0.055;-0.065;-0.07;-0.08;-0.06;-0.04;-0.03;-0.035;-0.045;-0.04;-0.04;-0.03;-0.035;-0.045;-0.055;-0.055;-0.055;-0.06;-0.07;-0.095;-0.11;-0.115;-0.115;-0.105;-0.115;-0.125;-0.13;-0.13;-0.1;-0.105;-0.12;-0.12;-0.1;-0.1;-0.085;-0.065;-0.08;-0.09;-0.095;-0.095;-0.085;-0.085;-0.09;-0.09;-0.105;-0.105;-0.085;-0.08;-0.085;-0.09;-0.1;-0.1;-0.085;-0.07;-0.085;-0.09;-0.105;-0.1;-0.08;-0.08;-0.09;-0.095;-0.115;-0.11;-0.09;-0.09;-0.09;-0.095;-0.1;-0.085;-0.055;-0.015;-0.015;-0.02;-0.035;-0.1;-0.19;-0.285;-0.395;-0.525;-0.64;-0.78;-0.91;-0.995;-1.02;-0.985;-0.93;-0.835;-0.705;-0.545;-0.405;-0.305;-0.22;-0.17;-0.14;-0.16;-0.185;-0.195;-0.175;-0.155;-0.13;-0.11;-0.105;-0.09;-0.115;-0.1;-0.105;-0.08;-0.095;-0.09;-0.105;-0.095;-0.095;-0.075;-0.08;-0.085;-0.1;-0.095;-0.085;-0.08;-0.085;-0.085;-0.1;-0.09;-0.095;-0.085;-0.095;-0.09;-0.1;-0.095;-0.1;-0.085;-0.095;-0.095;-0.125;-0.11;-0.105;-0.105;-0.105;-0.12;-0.13;-0.13;-0.12;-0.105;-0.12;-0.13;-0.135;-0.13;-0.125;-0.125;-0.135;-0.135;-0.155;-0.16;-0.145;-0.15;-0.16;-0.175;-0.185;-0.185;-0.18;-0.19;-0.195;-0.21;-0.215;-0.22;-0.225;-0.215;-0.23;-0.24;-0.26;-0.255;-0.25;-0.25;-0.27;-0.285;-0.285;-0.29;-0.29;-0.285;-0.295;-0.305;-0.305;-0.31;-0.295;-0.285;-0.28;-0.29;-0.285;-0.27;-0.25;-0.235;-0.235;-0.225;-0.23;-0.21;-0.19;-0.17;-0.16;-0.16;-0.165;-0.15;-0.13;-0.11;-0.115;-0.12;-0.115;-0.11;-0.1;-0.095;-0.105;-0.115;-0.11;-0.1;-0.1;-0.09;-0.09;-0.095;-0.095;-0.115;-0.1;-0.085;-0.09;-0.09;-0.1;-0.105;-0.1;-0.09;-0.085;-0.085;-0.095;-0.095;-0.08;-0.07;-0.08;-0.09;-0.09;-0.1;-0.075;-0.075;-0.08;-0.08;-0.09;-0.105;-0.09;-0.07;-0.075;-0.075;-0.09;-0.09;-0.065;-0.06;-0.075;-0.075;-0.09;-0.085;-0.08;-0.075;-0.065;-0.085;-0.08;-0.09;-0.08;-0.065;-0.06;-0.075;-0.085;-0.085;-0.08;-0.07;-0.075;-0.075;-0.08;-0.09;-0.075;-0.07;-0.06;-0.07;-0.085;-0.085;-0.085;-0.07;-0.075;-0.07;-0.085;-0.075;-0.065;-0.07;-0.07;-0.075;-0.085;-0.08;-0.065;-0.06;-0.07;-0.085;-0.085;-0.08;-0.08;-0.065;-0.07;-0.07;-0.075;-0.08;-0.07;-0.07;-0.08;-0.07;-0.085;-0.08;-0.075;-0.065;-0.06;-0.075;-0.085;-0.075;-0.075;-0.06;-0.07;-0.075;-0.08;-0.08;-0.075;-0.055;-0.06;-0.065;-0.08;-0.085;-0.07;-0.07;-0.055;-0.08;-0.075;-0.085;-0.075;-0.06;-0.06;-0.065;-0.075;-0.085;-0.075;-0.055;-0.06;-0.075;-0.085;-0.08;-0.065;-0.06;-0.065;-0.065;-0.08;-0.08;-0.075;-0.065;-0.07;-0.075;-0.08;-0.075;-0.065;-0.055;-0.055;-0.065;-0.075;-0.075;-0.06;-0.05;-0.065;-0.075;-0.07;-0.075;-0.065;-0.05;-0.055;-0.065;-0.065;-0.075;-0.055;-0.04;-0.05;-0.07;-0.07;-0.065;-0.065;-0.05;-0.055;-0.06;-0.075;-0.065;-0.06;-0.045;-0.055;-0.075;-0.08;-0.07;-0.055;-0.045;-0.065;-0.07;-0.08;-0.065;-0.055;-0.055;-0.065;-0.06;-0.07;-0.055;-0.055;-0.05;-0.06;-0.055;-0.055;-0.055;-0.04;-0.04;-0.045;-0.035;-0.035;-0.02;-0.01;0;-0.005;-0.005;-0.03;-0.04;-0.025;-0.02;-0.03;-0.03;-0.06;-0.055;-0.055;-0.06;-0.07;-0.075;-0.09;-0.09;-0.08;-0.075;-0.08;-0.08;-0.095;-0.085;-0.075;-0.05;-0.04;-0.05;-0.05;-0.055;-0.045;-0.045;-0.06;-0.05;-0.065;-0.055;-0.055;-0.04;-0.055;-0.05;-0.06;-0.065;-0.05;-0.035;-0.04;-0.05;-0.055;-0.055;-0.05;-0.04;-0.045;-0.055;-0.05;-0.06;-0.05;-0.05;-0.055;-0.05;-0.06;-0.055;-0.04;-0.03;-0.015;0.005;0.01;0.015;0.005;-0.015;-0.115;-0.2;-0.305;-0.41;-0.525;-0.63;-0.77;-0.9;-0.96;-0.94;-0.865;-0.76;-0.665;-0.51;-0.38;-0.245;-0.135;-0.06;-0.05;-0.08;-0.12;-0.14;-0.125;-0.08;-0.07;-0.045;-0.04;-0.04;-0.035;-0.015;-0.03;-0.03;-0.04;-0.015;-0.015;-0.005;-0.015;-0.015;-0.025;-0.02;-0.015;-0.005;-0.015;-0.015;-0.015;-0.015;-0.02;-0.01;-0.01;-0.015;-0.02;-0.035;-0.015;-0.025;-0.02;-0.025;-0.025;-0.025;-0.025;-0.015;-0.02;-0.02;-0.035;-0.04;-0.035;-0.015;-0.015;-0.035;-0.04;-0.055;-0.05;-0.035;-0.04;-0.045;-0.065;-0.06;-0.055;-0.05;-0.055;-0.065;-0.075;-0.08;-0.08;-0.085;-0.085;-0.105;-0.11;-0.115;-0.11;-0.115;-0.12;-0.14;-0.145;-0.16;-0.16;-0.155;-0.16;-0.175;-0.19;-0.195;-0.185;-0.17;-0.175;-0.19;-0.2;-0.205;-0.185;-0.19;-0.18;-0.185;-0.19;-0.18;-0.16;-0.13;-0.125;-0.125;-0.125;-0.11;-0.095;-0.085;-0.08;-0.075;-0.065;-0.06;-0.05;-0.04;-0.03;-0.04;-0.05;-0.045;-0.03;-0.025;-0.025;-0.03;-0.03;-0.025;-0.025;0;-0.01;-0.025;-0.025;-0.025;-0.025;-0.01;-0.01;-0.025;-0.03;-0.03;-0.02;-0.01;-0.015;-0.015;-0.015;-0.03;-0.015;0;-0.01;-0.005;-0.015;-0.025;-0.01;-0.005;-0.005;-0.015;-0.02;-0.02;-0.005;0;-0.01;-0.005;-0.01;-0.015;0;0;0.005;-0.005;-0.02;-0.03;-0.01;-0.015;-0.005;-0.015;-0.02;-0.025;-0.005;0;-0.005;-0.01;-0.025;-0.025;-0.015;0;-0.01;-0.01;-0.01;-0.02;-0.015;-0.015;-0.015;-0.01;-0.02;-0.025;-0.025;-0.005;-0.015;-0.015;-0.02;-0.02;-0.01;-0.005;-0.005;-0.01;-0.015;-0.015;-0.02;0;0;-0.015;-0.02;-0.03;-0.02;0.005;-0.015;-0.015;-0.02;-0.03;-0.015;-0.01;-0.015;-0.015;-0.03;-0.03;-0.01;0;-0.01;-0.02;-0.025;-0.035;-0.02;-0.005;-0.015;-0.025;-0.035;-0.035;-0.015;-0.01;-0.005;-0.015;-0.035;-0.035;-0.02;-0.005;-0.02;-0.015;-0.02;-0.025;-0.025;-0.01;-0.005;-0.01;-0.025;-0.03;-0.02;-0.005;-0.015;-0.025;-0.035;-0.03;-0.01;0;-0.01;-0.01;-0.035;-0.025;-0.01;0;-0.01;-0.015;-0.02;-0.03;-0.025;-0.005;-0.015;-0.025;-0.02;-0.03;-0.02;0;0;-0.01;-0.04;-0.035;-0.015;-0.005;-0.01;-0.03;-0.025;-0.03;-0.02;-0.015;-0.015;-0.025;-0.035;-0.03;-0.02;-0.015;-0.02;-0.035;-0.03;-0.04;-0.025;-0.01;-0.015;-0.03;-0.03;-0.045;-0.03;-0.02;-0.025;-0.025;-0.035;-0.04;-0.03;-0.02;-0.035;-0.035;-0.045;-0.035;-0.03;-0.02;-0.03;-0.045;-0.045;-0.04;-0.035;-0.02;-0.025;-0.035;-0.045;-0.04;-0.025;-0.025;-0.015;-0.03;-0.035;-0.025;-0.01;0.005;0.015;0.005;0;-0.005;0.005;0.015;0;-0.005;-0.015;-0.015;-0.02;-0.01;-0.02;-0.05;-0.065;-0.07;-0.08;-0.075;-0.08;-0.085;-0.095;-0.095;-0.07;-0.06;-0.07;-0.075;-0.07;-0.055;-0.045;-0.02;-0.03;-0.05;-0.05;-0.055;-0.055;-0.035;-0.045;-0.06;-0.065;-0.06;-0.045;-0.045;-0.045;-0.055;-0.07;-0.06;-0.05;-0.04;-0.05;-0.06;-0.065;-0.065;-0.055;-0.04;-0.045;-0.06;-0.055;-0.065;-0.06;-0.05;-0.05;-0.045;-0.03;-0.005;0.02;0.035;0;-0.065;-0.16;-0.265;-0.365;-0.485;-0.615;-0.755;-0.895;-0.99;-0.99;-0.925;-0.865;-0.76;-0.64;-0.48;-0.35;-0.225;-0.155;-0.13;-0.135;-0.155;-0.165;-0.14;-0.11;-0.095;-0.08;-0.07;-0.075;-0.045;-0.05;-0.045;-0.055;-0.06;-0.05;-0.03;-0.045;-0.04;-0.045;-0.05;-0.04;-0.03;-0.05;-0.045;-0.055;-0.05;-0.04;-0.03;-0.045;-0.045;-0.065;-0.06;-0.04;-0.04;-0.045;-0.045;-0.065;-0.07;-0.065;-0.04;-0.045;-0.065;-0.075;-0.09;-0.065;-0.06;-0.075;-0.08;-0.1;-0.09;-0.08;-0.075;-0.08;-0.095;-0.11;-0.11;-0.105;-0.095;-0.11;-0.13;-0.135;-0.14;-0.14;-0.13;-0.145;-0.16;-0.17;-0.17;-0.175;-0.16;-0.175;-0.195;-0.215;-0.22;-0.22;-0.215;-0.235;-0.235;-0.25;-0.255;-0.24;-0.255;-0.255;-0.26;-0.275;-0.265;-0.265;-0.25;-0.255;-0.25;-0.245;-0.24;-0.205;-0.19;-0.185;-0.175;-0.175;-0.17;-0.15;-0.135;-0.135;-0.125;-0.12;-0.11;-0.09;-0.08;-0.08;-0.08;-0.085;-0.08;-0.07;-0.07;-0.06;-0.07;-0.075;-0.075;-0.065;-0.06;-0.065;-0.07;-0.08;-0.07;-0.075;-0.06;-0.06;-0.065;-0.075;-0.07;-0.07;-0.045;-0.045;-0.06;-0.07;-0.07;-0.05;-0.05;-0.055;-0.065;-0.065;-0.055;-0.05;-0.05;-0.05;-0.065;-0.06;-0.06;-0.055;-0.06;-0.055;-0.05;-0.06;-0.05;-0.05;-0.04;-0.05;-0.045;-0.045;-0.055;-0.05;-0.045;-0.045;-0.055;-0.06;-0.065;-0.055;-0.04;-0.05;-0.055;-0.06;-0.055;-0.05;-0.04;-0.05;-0.055;-0.055;-0.06;-0.05;-0.045;-0.045;-0.06;-0.065;-0.055;-0.055;-0.04;-0.05;-0.05;-0.065;-0.06;-0.05;-0.045;-0.055;-0.06;-0.065;-0.06;-0.045;-0.045;-0.05;-0.06;-0.06;-0.06;-0.05;-0.045;-0.045;-0.065;-0.07;-0.07;-0.055;-0.045;-0.055;-0.05;-0.06;-0.055;-0.05;-0.035
8;0;-0.46;-0.47;-0.45;-0.46;-0.48;-0.485;-0.49;-0.5;-0.485;-0.48;-0.475;-0.455;-0.46;-0.475;-0.46;-0.47;-0.475;-0.49;-0.505;-0.515;-0.49;-0.505;-0.48;-0.48;-0.495;-0.49;-0.495;-0.505;-0.515;-0.54;-0.555;-0.565;-0.545;-0.545;-0.54;-0.545;-0.53;-0.535;-0.53;-0.55;-0.55;-0.565;-0.565;-0.57;-0.565;-0.56;-0.555;-0.555;-0.555;-0.555;-0.565;-0.565;-0.58;-0.585;-0.59;-0.6;-0.605;-0.59;-0.58;-0.585;-0.585;-0.56;-0.555;-0.575;-0.575;-0.585;-0.585;-0.58;-0.59;-0.575;-0.565;-0.57;-0.555;-0.545;-0.555;-0.58;-0.6;-0.595;-0.595;-0.605;-0.6;-0.595;-0.595;-0.58;-0.575;-0.57;-0.575;-0.57;-0.575;-0.565;-0.605;-0.6;-0.605;-0.595;-0.615;-0.58;-0.59;-0.585;-0.595;-0.605;-0.61;-0.605;-0.62;-0.62;-0.615;-0.61;-0.605;-0.595;-0.595;-0.58;-0.59;-0.58;-0.585;-0.61;-0.6;-0.64;-0.615;-0.615;-0.615;-0.59;-0.595;-0.585;-0.595;-0.6;-0.595;-0.615;-0.635;-0.635;-0.64;-0.62;-0.605;-0.6;-0.575;-0.6;-0.59;-0.6;-0.59;-0.605;-0.625;-0.63;-0.64;-0.635;-0.615;-0.615;-0.6;-0.595;-0.61;-0.615;-0.63;-0.635;-0.64;-0.64;-0.65;-0.63;-0.62;-0.615;-0.6;-0.6;-0.615;-0.605;-0.625;-0.645;-0.645;-0.665;-0.66;-0.625;-0.62;-0.62;-0.605;-0.615;-0.615;-0.59;-0.6;-0.61;-0.59;-0.59;-0.57;-0.56;-0.535;-0.53;-0.495;-0.49;-0.49;-0.51;-0.51;-0.54;-0.58;-0.6;-0.62;-0.64;-0.625;-0.63;-0.615;-0.625;-0.625;-0.655;-0.65;-0.675;-0.685;-0.685;-0.665;-0.665;-0.65;-0.64;-0.64;-0.62;-0.62;-0.635;-0.64;-0.65;-0.665;-0.68;-0.675;-0.66;-0.64;-0.65;-0.655;-0.645;-0.64;-0.655;-0.665;-0.675;-0.7;-0.69;-0.67;-0.65;-0.645;-0.64;-0.625;-0.62;-0.63;-0.62;-0.63;-0.61;-0.57;-0.52;-0.47;-0.445;-0.465;-0.56;-0.68;-0.86;-1.085;-1.35;-1.54;-1.665;-1.73;-1.71;-1.645;-1.57;-1.48;-1.37;-1.255;-1.18;-1.11;-1.04;-0.985;-0.925;-0.87;-0.815;-0.76;-0.73;-0.685;-0.67;-0.645;-0.625;-0.64;-0.645;-0.635;-0.62;-0.63;-0.615;-0.615;-0.61;-0.59;-0.565;-0.555;-0.57;-0.565;-0.575;-0.595;-0.6;-0.605;-0.605;-0.625;-0.61;-0.595;-0.59;-0.565;-0.555;-0.565;-0.56;-0.585;-0.57;-0.585;-0.585;-0.585;-0.59;-0.57;-0.565;-0.56;-0.55;-0.555;-0.555;-0.58;-0.585;-0.6;-0.6;-0.595;-0.595;-0.595;-0.575;-0.565;-0.555;-0.545;-0.56;-0.565;-0.56;-0.575;-0.58;-0.575;-0.565;-0.575;-0.555;-0.54;-0.54;-0.55;-0.55;-0.555;-0.56;-0.575;-0.57;-0.575;-0.575;-0.57;-0.55;-0.555;-0.54;-0.535;-0.55;-0.56;-0.56;-0.58;-0.58;-0.595;-0.585;-0.57;-0.565;-0.555;-0.555;-0.57;-0.565;-0.585;-0.595;-0.615;-0.62;-0.625;-0.635;-0.625;-0.62;-0.615;-0.595;-0.605;-0.6;-0.6;-0.605;-0.595;-0.605;-0.6;-0.6;-0.595;-0.58;-0.57;-0.565;-0.565;-0.585;-0.585;-0.605;-0.61;-0.6;-0.63;-0.62;-0.605;-0.615;-0.6;-0.59;-0.59;-0.58;-0.59;-0.6;-0.615;-0.61;-0.615;-0.62;-0.61;-0.6;-0.605;-0.595;-0.59;-0.6;-0.605;-0.59;-0.63;-0.625;-0.62;-0.62;-0.61;-0.61;-0.595;-0.59;-0.58;-0.595;-0.59;-0.59;-0.61;-0.605;-0.615;-0.61;-0.595;-0.61;-0.59;-0.585;-0.61;-0.585;-0.6;-0.625;-0.615;-0.62;-0.63;-0.635;-0.615;-0.615;-0.605;-0.585;-0.58;-0.595;-0.6;-0.595;-0.6;-0.625;-0.615;-0.62;-0.605;-0.61;-0.58;-0.6;-0.585;-0.595;-0.605;-0.605;-0.62;-0.62;-0.63;-0.635;-0.615;-0.61;-0.6;-0.6;-0.59;-0.6;-0.6;-0.605;-0.605;-0.615;-0.61;-0.61;-0.61;-0.58;-0.585;-0.575;-0.575;-0.575;-0.595;-0.6;-0.615;-0.63;-0.63;-0.615;-0.61;-0.595;-0.59;-0.57;-0.585;-0.58;-0.595;-0.595;-0.605;-0.6;-0.6;-0.595;-0.59;-0.565;-0.56;-0.55;-0.545;-0.535;-0.535;-0.545;-0.54;-0.545;-0.545;-0.525;-0.52;-0.51;-0.505;-0.505;-0.525;-0.555;-0.575;-0.59;-0.625;-0.625;-0.63;-0.64;-0.64;-0.645;-0.625;-0.62;-0.635;-0.635;-0.625;-0.63;-0.63;-0.645;-0.655;-0.655;-0.65;-0.635;-0.635;-0.605;-0.615;-0.62;-0.635;-0.62;-0.635;-0.635;-0.635;-0.64;-0.635;-0.63;-0.61;-0.61;-0.61;-0.615;-0.635;-0.645;-0.655;-0.66;-0.65;-0.65;-0.645;-0.64;-0.625;-0.605;-0.62;-0.595;-0.585;-0.57;-0.555;-0.5;-0.47;-0.42;-0.415;-0.46;-0.54;-0.655;-0.86;-1.07;-1.275;-1.445;-1.55;-1.565;-1.53;-1.46;-1.385;-1.3;-1.2;-1.115;-1.04;-0.98;-0.945;-0.895;-0.835;-0.78;-0.72;-0.68;-0.64;-0.64;-0.595;-0.59;-0.595;-0.585;-0.57;-0.58;-0.58;-0.595;-0.59;-0.58;-0.56;-0.545;-0.54;-0.535;-0.53;-0.525;-0.54;-0.555;-0.555;-0.575;-0.565;-0.57;-0.565;-0.545;-0.54;-0.545;-0.53;-0.55;-0.545;-0.55;-0.565;-0.575;-0.555;-0.57;-0.555;-0.54;-0.53;-0.525;-0.52;-0.515;-0.515;-0.535;-0.52;-0.535;-0.54;-0.545;-0.545;-0.53;-0.525;-0.52;-0.525;-0.51;-0.525;-0.54;-0.545;-0.55;-0.55;-0.55;-0.535;-0.52;-0.515;-0.485;-0.485;-0.49;-0.51;-0.51;-0.52;-0.535;-0.535;-0.53;-0.515;-0.51;-0.505;-0.51;-0.525;-0.535;-0.52;-0.555;-0.56;-0.575;-0.565;-0.56;-0.55;-0.545;-0.535;-0.52;-0.535;-0.54;-0.56;-0.565;-0.585;-0.595;-0.595;-0.59;-0.585;-0.56;-0.54;-0.54;-0.55;-0.545;-0.525;-0.535;-0.53;-0.54;-0.53;-0.515;-0.515;-0.505;-0.495;-0.49;-0.5;-0.52;-0.53;-0.545;-0.545;-0.545;-0.55;-0.555;-0.54;-0.54;-0.525;-0.52;-0.525;-0.52;-0.535;-0.525;-0.535;-0.55;-0.545;-0.535;-0.525;-0.52;-0.505;-0.51;-0.51;-0.525;-0.525;-0.545;-0.54;-0.545;-0.555;-0.55;-0.545;-0.525;-0.53;-0.535;-0.535;-0.52;-0.53;-0.54;-0.54;-0.545;-0.55;-0.54;-0.54;-0.53;-0.52;-0.51;-0.52;-0.54;-0.55;-0.555;-0.56;-0.57;-0.56;-0.565;-0.555;-0.545;-0.545;-0.54;-0.54;-0.525;-0.54;-0.545;-0.56;-0.555;-0.555;-0.545;-0.54;-0.54;-0.545;-0.53;-0.53;-0.535;-0.545;-0.555;-0.555;-0.57;-0.58;-0.565;-0.575;-0.575;-0.545;-0.53;-0.54;-0.54;-0.54;-0.535;-0.56;-0.56;-0.56;-0.58;-0.55;-0.55;-0.56;-0.54;-0.53;-0.555;-0.56;-0.565;-0.57;-0.58;-0.595;-0.585;-0.565;-0.565;-0.55;-0.535;-0.55;-0.54;-0.54;-0.55;-0.54;-0.55;-0.545;-0.53;-0.525;-0.51;-0.495;-0.485;-0.47;-0.465;-0.47;-0.475;-0.475;-0.48;-0.49;-0.51;-0.485;-0.505;-0.525;-0.525;-0.545;-0.555;-0.55;-0.565;-0.58;-0.605;-0.615;-0.615;-0.615;-0.61;-0.605;-0.59;-0.57;-0.575;-0.59;-0.63;-0.64;-0.655;-0.65;-0.645;-0.63;-0.6;-0.595;-0.605;-0.595;-0.61;-0.605;-0.61;-0.62;-0.62;-0.64;-0.61;-0.625;-0.61;-0.6;-0.595;-0.605;-0.595;-0.595;-0.615;-0.62;-0.635;-0.625;-0.59;-0.55;-0.5;-0.43;-0.36;-0.36;-0.365;-0.455;-0.6;-0.805;-1.025;-1.26;-1.48;-1.625;-1.69;-1.7;-1.63;-1.575;-1.495;-1.395;-1.315;-1.21;-1.11;-1.035;-0.945;-0.875;-0.79;-0.725;-0.665;-0.62;-0.605;-0.605;-0.615;-0.615;-0.625;-0.605;-0.61;-0.58;-0.56;-0.56;-0.535;-0.54;-0.54;-0.535;-0.55;-0.555;-0.565;-0.555;-0.56;-0.535;-0.51;-0.5;-0.51;-0.505;-0.505;-0.51;-0.525;-0.53;-0.535;-0.54;-0.535;-0.53;-0.5;-0.51;-0.505;-0.51;-0.51;-0.52;-0.515;-0.51;-0.515;-0.515;-0.51;-0.485;-0.47;-0.47;-0.47;-0.46;-0.48;-0.465;-0.49;-0.51;-0.505;-0.5;-0.495;-0.485;-0.465;-0.47;-0.45;-0.46;-0.44;-0.46;-0.455;-0.47;-0.46;-0.445;-0.46;-0.445;-0.445;-0.42;-0.395;-0.43;-0.415;-0.435;-0.445;-0.44;-0.455;-0.44;-0.46;-0.465;-0.455;-0.43;-0.44;-0.435;-0.455;-0.455;-0.465;-0.475;-0.46;-0.465;-0.465;-0.45;-0.46;-0.47;-0.465;-0.45;-0.465;-0.465;-0.47;-0.495;-0.5;-0.49;-0.495;-0.505;-0.49;-0.485;-0.47;-0.46;-0.475;-0.48;-0.49;-0.49;-0.515;-0.52;-0.52;-0.515;-0.505;-0.51;-0.51;-0.515;-0.525;-0.535;-0.525;-0.555;-0.555;-0.57;-0.56;-0.55;-0.54;-0.54;-0.515;-0.515;-0.505;-0.52;-0.515;-0.53;-0.55;-0.545;-0.545;-0.545;-0.53;-0.52;-0.525;-0.53;-0.525;-0.515;-0.525;-0.545;-0.555;-0.57;-0.555;-0.55;-0.54;-0.535;-0.51;-0.515;-0.515;-0.52;-0.525;-0.545;-0.56;-0.55;-0.555;-0.535;-0.54;-0.52;-0.52;-0.515;-0.515;-0.535;-0.55;-0.56;-0.555;-0.555;-0.55;-0.55;-0.545;-0.52;-0.52;-0.515;-0.515;-0.535;-0.54;-0.56;-0.575;-0.58;-0.575;-0.57;-0.545;-0.535;-0.54;-0.53;-0.54;-0.54;-0.565;-0.555;-0.585;-0.57;-0.57;-0.55;-0.535;-0.54;-0.515;-0.53;-0.525;-0.535;-0.545;-0.545;-0.57;-0.565;-0.585;-0.57;-0.56;-0.565;-0.545;-0.555;-0.55;-0.545;-0.57;-0.57;-0.565;-0.575;-0.565;-0.545;-0.545;-0.54;-0.525;-0.53;-0.53;-0.525;-0.525;-0.54;-0.525;-0.535;-0.5;-0.49;-0.48;-0.48;-0.445;-0.445;-0.45;-0.45;-0.45;-0.485;-0.495;-0.535;-0.54;-0.565;-0.555;-0.57;-0.555;-0.54;-0.565;-0.6;-0.6;-0.61;-0.625;-0.61;-0.6;-0.605;-0.595;-0.59;-0.595;-0.595;-0.585;-0.59;-0.615;-0.6;-0.605;-0.615;-0.615;-0.605;-0.605;-0.6;-0.58;-0.59;-0.58;-0.595;-0.59;-0.61;-0.62;-0.615;-0.615;-0.605;-0.59;-0.605;-0.575;-0.57;-0.555;-0.54;-0.5;-0.465;-0.42;-0.385;-0.37;-0.42;-0.515;-0.635;-0.825;-1.03;-1.27;-1.48;-1.645;-1.72;-1.73;-1.705;-1.635;-1.54;-1.44;-1.315;-1.21;-1.09;-0.99;-0.92;-0.865;-0.795;-0.735;-0.695;-0.65;-0.6;-0.59;-0.59;-0.555;-0.555;-0.54;-0.545;-0.54;-0.56;-0.555;-0.55;-0.55;-0.545;-0.525;-0.515;-0.495;-0.485;-0.5;-0.495;-0.49;-0.49;-0.51;-0.52;-0.515;-0.525;-0.5;-0.49;-0.49;-0.485;-0.475;-0.47;-0.495;-0.505;-0.52;-0.53;-0.515;-0.515;-0.505;-0.485;-0.465;-0.445;-0.46;-0.475;-0.475;-0.49;-0.485;-0.49;-0.475;-0.47;-0.475;-0.455;-0.45;-0.45;-0.445;-0.465;-0.47;-0.485;-0.485;-0.485;-0.475;-0.475;-0.46;-0.455;-0.435;-0.425;-0.43;-0.43;-0.43;-0.445;-0.455;-0.46;-0.465;-0.46;-0.445;-0.44;-0.45;-0.44;-0.445;-0.445;-0.46;-0.475;-0.48;-0.49;-0.495;-0.475;-0.47;-0.46;-0.455;-0.45;-0.46;-0.455;-0.49;-0.485;-0.49;-0.495;-0.5;-0.51;-0.495;-0.49;-0.485;-0.49;-0.48;-0.495;-0.515;-0.51;-0.515;-0.52;-0.515;-0.51;-0.485;-0.485;-0.48;-0.455;-0.47;-0.465;-0.49;-0.49;-0.51;-0.53;-0.5;-0.515;-0.51;-0.49;-0.485;-0.51;-0.485;-0.515;-0.505;-0.525;-0.53;-0.55;-0.545;-0.53;-0.525;-0.5;-0.495;-0.5;-0.49;-0.505;-0.49;-0.5;-0.515;-0.535;-0.53;-0.515;-0.52;-0.5;-0.5;-0.485;-0.505;-0.52;-0.525;-0.525;-0.535;-0.545;-0.53;-0.515;-0.535;-0.51;-0.495;-0.495;-0.5;-0.505;-0.5;-0.52;-0.51;-0.515;-0.54;-0.54;-0.52;-0.52;-0.505;-0.495;-0.51;-0.495;-0.525;-0.555;-0.55;-0.545;-0.565;-0.535;-0.53;-0.51;-0.51;-0.485;-0.5;-0.495;-0.51;-0.53;-0.53;-0.53;-0.55;-0.525;-0.525;-0.52;-0.515;-0.5;-0.51;-0.515;-0.535;-0.54;-0.555;-0.55;-0.54;-0.535;-0.525;-0.51;-0.5;-0.5;-0.505;-0.515;-0.53;-0.54;-0.535;-0.54;-0.545;-0.545;-0.535;-0.525;-0.53;-0.52;-0.53;-0.53;-0.55;-0.545;-0.555;-0.555;-0.55;-0.545;-0.53;-0.51;-0.495;-0.495;-0.495;-0.485;-0.5;-0.49;-0.485;-0.49;-0.49;-0.46;-0.465;-0.445;-0.43;-0.435;-0.44;-0.45;-0.5;-0.505;-0.54;-0.565;-0.58;-0.565;-0.555;-0.545;-0.54;-0.525;-0.55;-0.565;-0.575;-0.58;-0.585;-0.59;-0.585;-0.59;-0.575;-0.575;-0.57;-0.575;-0.575;-0.58;-0.59;-0.61;-0.6;-0.605;-0.605;-0.595;-0.575;-0.565;-0.555;-0.535;-0.56;-0.555;-0.57;-0.58;-0.58;-0.59;-0.6;-0.605;-0.585;-0.59;-0.57;-0.545;-0.56;-0.58;-0.575;-0.555;-0.525;-0.485;-0.42;-0.38;-0.37;-0.41;-0.52;-0.71;-0.945;-1.19;-1.39;-1.51;-1.595;-1.535;-1.475;-1.38;-1.265;-1.145;-1.05;-0.965;-0.885;-0.825;-0.76;-0.71;-0.66;-0.62;-0.59;-0.55;-0.545;-0.545;-0.53;-0.535;-0.52;-0.52;-0.535;-0.53;-0.525;-0.535;-0.535;-0.525;-0.52;-0.51;-0.495;-0.475;-0.48;-0.48;-0.495;-0.505;-0.51;-0.51;-0.515;-0.505;-0.49;-0.5;-0.49;-0.475;-0.48;-0.485;-0.495;-0.51;-0.52;-0.52;-0.52;-0.51;-0.505;-0.5;-0.49;-0.48;-0.47;-0.47;-0.485;-0.49;-0.495;-0.49;-0.51;-0.495;-0.49;-0.495;-0.49;-0.48;-0.475;-0.47;-0.49;-0.505;-0.505;-0.52;-0.52;-0.52;-0.495;-0.5;-0.48;-0.47;-0.47;-0.465;-0.48;-0.47;-0.485;-0.495;-0.5;-0.5;-0.5;-0.5;-0.485;-0.49;-0.495;-0.505;-0.505;-0.53;-0.525;-0.53;-0.55;-0.545;-0.54;-0.535;-0.525;-0.515;-0.515;-0.525;-0.535;-0.54;-0.55;-0.56;-0.55;-0.545;-0.515;-0.52;-0.5;-0.48;-0.49;-0.49;-0.495;-0.505;-0.515;-0.505;-0.5;-0.5;-0.49;-0.46;-0.47;-0.455;-0.455;-0.47;-0.48;-0.495;-0.49;-0.515;-0.51;-0.52;-0.51;-0.495;-0.49;-0.48;-0.5;-0.51;-0.505;-0.51;-0.52;-0.505;-0.505;-0.495;-0.485;-0.48;-0.47;-0.455;-0.45;-0.48;-0.47;-0.495;-0.51;-0.51;-0.5;-0.495;-0.505;-0.495;-0.47;-0.48;-0.49;-0.495;-0.485;-0.5;-0.5;-0.51;-0.51;-0.515;-0.49;-0.48;-0.465;-0.46;-0.47;-0.465;-0.485;-0.51;-0.52;-0.505;-0.525;-0.495;-0.49;-0.485;-0.495;-0.465;-0.47;-0.475;-0.49;-0.495;-0.5;-0.515;-0.495;-0.505;-0.48;-0.475;-0.48;-0.46;-0.475;-0.5;-0.49;-0.515;-0.505;-0.505;-0.52;-0.515;-0.505;-0.495;-0.485;-0.49;-0.495;-0.495;-0.51;-0.5;-0.51;-0.505;-0.505;-0.495;-0.49;-0.47;-0.48;-0.48;-0.475;-0.5;-0.5;-0.51;-0.515;-0.54;-0.515;-0.525;-0.51;-0.515;-0.485;-0.47;-0.47;-0.48;-0.465;-0.46;-0.455;-0.46;-0.43;-0.415;-0.41;-0.395;-0.39;-0.375;-0.405;-0.415;-0.44;-0.475;-0.515;-0.53;-0.535;-0.545;-0.55;-0.53;-0.545;-0.52;-0.54;-0.535;-0.555;-0.55;-0.56;-0.54;-0.53;-0.525;-0.53;-0.52;-0.52;-0.505;-0.52;-0.535;-0.545;-0.545;-0.56;-0.57;-0.585;-0.575;-0.565;-0.565;-0.54;-0.54;-0.54;-0.535;-0.545;-0.54;-0.565;-0.56;-0.555;-0.565;-0.565;-0.54;-0.545;-0.525;-0.53;-0.515;-0.485;-0.455;-0.4;-0.37;-0.35;-0.365;-0.42;-0.53;-0.69;-0.88;-1.105;-1.32;-1.475;-1.565;-1.605;-1.585;-1.525;-1.45;-1.385;-1.28;-1.18;-1.075;-0.995;-0.925;-0.845;-0.785;-0.72;-0.665;-0.63;-0.59;-0.575;-0.545;-0.54;-0.515;-0.515;-0.52;-0.515;-0.505;-0.495;-0.515;-0.525;-0.505;-0.485;-0.475;-0.48;-0.455;-0.465;-0.465;-0.475;-0.495;-0.5;-0.51;-0.51;-0.515;-0.495;-0.49;-0.475;-0.46;-0.46;-0.475;-0.46;-0.485;-0.485;-0.485;-0.5;-0.49;-0.47;-0.46;-0.445;-0.445;-0.46;-0.47;-0.47;-0.485;-0.49;-0.495;-0.5;-0.515;-0.495;-0.48;-0.465;-0.455;-0.45;-0.445;-0.455;-0.445;-0.455;-0.455;-0.47;-0.465;-0.445;-0.445;-0.43;-0.42;-0.42;-0.42;-0.43;-0.435;-0.435;-0.45;-0.46;-0.455;-0.42;-0.405;-0.4;-0.39;-0.38;-0.39;-0.405;-0.405;-0.43;-0.445;-0.445;-0.45;-0.44;-0.42;-0.41;-0.415;-0.435;-0.445;-0.44;-0.46;-0.475;-0.49;-0.47;-0.47;-0.445;-0.45;-0.435;-0.435;-0.425;-0.435;-0.45;-0.45;-0.485;-0.485;-0.49;-0.485;-0.48;-0.495;-0.47;-0.46;-0.47;-0.475;-0.49;-0.5;-0.51;-0.5;-0.5;-0.505;-0.49;-0.48;-0.47;-0.475;-0.47;-0.465;-0.49;-0.505;-0.505;-0.52;-0.535;-0.515;-0.51;-0.51;-0.49;-0.475;-0.485;-0.49;-0.5;-0.495;-0.51;-0.52;-0.525;-0.52;-0.51;-0.495;-0.5;-0.48;-0.49;-0.495;-0.485;-0.5;-0.515;-0.525;-0.545;-0.545;-0.51;-0.505;-0.505;-0.5;-0.48;-0.495;-0.495;-0.5;-0.51;-0.52;-0.535;-0.525;-0.53;-0.51;-0.52;-0.5;-0.515;-0.51;-0.52;-0.52;-0.54;-0.545;-0.545;-0.525;-0.52;-0.51;-0.505;-0.49;-0.485;-0.495;-0.51;-0.52;-0.535;-0.555;-0.535;-0.54;-0.53;-0.525;-0.51;-0.515;-0.515;-0.52;-0.525;-0.54;-0.525;-0.54;-0.54;-0.525;-0.505;-0.53;-0.495;-0.495;-0.505;-0.52;-0.52;-0.535;-0.545;-0.545;-0.53;-0.545;-0.535;-0.515;-0.52;-0.52;-0.51;-0.505;-0.485;-0.49;-0.495;-0.475;-0.47;-0.47;-0.455;-0.45;-0.425;-0.41;-0.415;-0.43;-0.45;-0.48;-0.5;-0.535;-0.545;-0.565;-0.57;-0.555;-0.555;-0.54;-0.565;-0.58;-0.585;-0.585;-0.59;-0.565;-0.58;-0.575;-0.57;-0.57;-0.565;-0.56;-0.56;-0.57;-0.57;-0.58;-0.6;-0.6;-0.61;-0.6;-0.595;-0.585;-0.585;-0.57;-0.58;-0.565;-0.58;-0.595;-0.575;-0.595;-0.585;-0.6;-0.585;-0.58;-0.565;-0.55;-0.55;-0.525;-0.47;-0.435;-0.385;-0.36;-0.39;-0.475;-0.595;-0.77;-0.965;-1.195;-1.395;-1.56;-1.675;-1.68;-1.655;-1.62;-1.555;-1.49;-1.39
