1;0;-0.045;0.01;0.05;0.075;0.075;0.065;0.065;0.1;0.135;0.13;0.12;0.12;0.14;0.145;0.13;0.135;0.14;0.155;0.17;0.185;0.17;0.14;0.12;0.105;0.11;0.105;0.095;0.05;0.02;0.005;0;-0.025;-0.065;-0.095;-0.09;-0.09;-0.1;-0.145;-0.165;-0.17;-0.175;-0.225;-0.25;-0.255;-0.24;-0.245;-0.27;-0.295;-0.285;-0.285;-0.26;-0.26;-0.275;-0.285;-0.29;-0.26;-0.245;-0.275;-0.3;-0.285;-0.275;-0.26;-0.24;-0.225;-0.22;-0.235;-0.235;-0.215;-0.205;-0.2;-0.19;-0.19;-0.18;-0.16;-0.15;-0.145;-0.145;-0.15;-0.145;-0.135;-0.13;-0.145;-0.135;-0.155;-0.15;-0.13;-0.135;-0.155;-0.16;-0.15;-0.145;-0.105;-0.105;-0.145;-0.205;-0.235;-0.205;-0.17;-0.16;-0.16;-0.175;-0.19;-0.2;-0.2;-0.195;-0.205;-0.235;-0.225;-0.23;-0.245;-0.22;-0.215;-0.22;-0.225;-0.235;-0.26;-0.28;-0.29;-0.3;-0.295;-0.29;-0.28;-0.245;-0.245;-0.25;-0.32;-0.335;-0.335;-0.31;-0.295;-0.31;-0.325;-0.315;-0.29;-0.275;-0.265;-0.27;-0.285;-0.295;-0.315;-0.29;-0.285;-0.315;-0.33;-0.32;-0.29;-0.29;-0.315;-0.31;-0.3;-0.33;-0.305;-0.26;-0.24;-0.26;-0.22;-0.2;-0.17;-0.145;-0.13;-0.14;-0.135;-0.1;-0.055;0;0.04;0.045;0.025;0.01;-0.005;-0.025;-0.055;-0.095;-0.12;-0.165;-0.185;-0.195;-0.235;-0.265;-0.325;-0.355;-0.36;-0.335;-0.33;-0.34;-0.335;-0.335;-0.33;-0.32;-0.335;-0.365;-0.375;-0.375;-0.38;-0.395;-0.425;-0.42;-0.375;-0.28;-0.025;0.4;0.92;1.35;1.66;1.86;1.965;1.935;1.73;1.35;0.81;0.175;-0.42;-0.725;-0.675;-0.52;-0.44;-0.43;-0.43;-0.425;-0.4;-0.415;-0.425;-0.45;-0.435;-0.43;-0.44;-0.475;-0.51;-0.485;-0.46;-0.45;-0.45;-0.45;-0.47;-0.445;-0.44;-0.43;-0.43;-0.44;-0.465;-0.455;-0.44;-0.425;-0.435;-0.44;-0.445;-0.43;-0.41;-0.38;-0.38;-0.38;-0.405;-0.42;-0.42;-0.395;-0.385;-0.39;-0.425;-0.425;-0.41;-0.375;-0.36;-0.375;-0.37;-0.36;-0.34;-0.31;-0.315;-0.31;-0.31;-0.3;-0.285;-0.23;-0.22;-0.25;-0.265;-0.265;-0.235;-0.185;-0.18;-0.165;-0.155;-0.145;-0.11;-0.085;-0.085;-0.065;-0.07;-0.06;-0.05;-0.015;0;0.005;0.015;0.025;0.065;0.09;0.11;0.085;0.075;0.095;0.135;0.155;0.12;0.11;0.09;0.07;0.08;0.09;0.085;0.05;0.015;-0.02;0;0;-0.015;-0.05;-0.075;-0.085;-0.085;-0.09;-0.115;-0.145;-0.17;-0.17;-0.16;-0.165;-0.16;-0.185;-0.21;-0.195;-0.185;-0.21;-0.215;-0.215;-0.23;-0.22;-0.21;-0.2;-0.205;-0.2;-0.215;-0.2;-0.175;-0.14;-0.13;-0.17;-0.195;-0.2;-0.185;-0.17;-0.165;-0.165;-0.175;-0.18;-0.17;-0.135;-0.13;-0.14;-0.155;-0.175;-0.175;-0.15;-0.145;-0.15;-0.145;-0.16;-0.155;-0.145;-0.145;-0.165;-0.18;-0.175;-0.16;-0.15;-0.13;-0.125;-0.15;-0.17;-0.18;-0.195;-0.185;-0.195;-0.21;-0.23;-0.22;-0.2;-0.185;-0.19;-0.21;-0.22;-0.205;-0.195;-0.205;-0.22;-0.24;-0.24;-0.22;-0.21;-0.22;-0.23;-0.24;-0.24;-0.235;-0.215;-0.24;-0.245;-0.275;-0.265;-0.255;-0.24;-0.24;-0.255;-0.27;-0.27;-0.255;-0.24;-0.23;-0.23;-0.25;-0.28;-0.255;-0.25;-0.265;-0.295;-0.305;-0.305;-0.27;-0.235;-0.23;-0.235;-0.265;-0.28;-0.265;-0.25;-0.24;-0.25;-0.265;-0.275;-0.27;-0.24;-0.245;-0.245;-0.27;-0.255;-0.24;-0.21;-0.195;-0.18;-0.16;-0.135;-0.105;-0.09;-0.105;-0.13;-0.135;-0.08;0.015;0.085;0.105;0.085;0.07;0.065;0.07;0.09;0.055;0.02;-0.035;-0.11;-0.125;-0.135;-0.155;-0.19;-0.255;-0.25;-0.25;-0.235;-0.245;-0.255;-0.26;-0.25;-0.22;-0.205;-0.215;-0.27;-0.35;-0.395;-0.395;-0.33;-0.155;0.155;0.65;1.2;1.69;1.99;2.14;2.155;2.075;1.83;1.39;0.79;0.15;-0.49;-0.62;-0.45;-0.31;-0.295;-0.295;-0.3;-0.29;-0.305;-0.31;-0.305;-0.325;-0.35;-0.39;-0.39;-0.365;-0.355;-0.35;-0.355;-0.365;-0.375;-0.35;-0.32;-0.33;-0.335;-0.35;-0.35;-0.35;-0.32;-0.315;-0.33;-0.34;-0.34;-0.32;-0.305;-0.32;-0.33;-0.32;-0.315;-0.3;-0.28;-0.28;-0.275;-0.275;-0.28;-0.27;-0.24;-0.245;-0.245;-0.25;-0.24;-0.225;-0.195;-0.195;-0.2;-0.205;-0.205;-0.165;-0.145;-0.14;-0.135;-0.135;-0.12;-0.09;-0.06;-0.05;-0.06;-0.065;-0.045;-0.015;0.025;0.025;0.015;0.03;0.04;0.055;0.09;0.115;0.125;0.13;0.15;0.155;0.19;0.21;0.2;0.19;0.195;0.22;0.24;0.235;0.195;0.17;0.18;0.18;0.18;0.19;0.135;0.1;0.095;0.09;0.08;0.065;0.02;-0.005;0;-0.005;0;-0.025;-0.055;-0.095;-0.09;-0.08;-0.07;-0.095;-0.135;-0.145;-0.155;-0.14;-0.125;-0.14;-0.16;-0.175;-0.165;-0.15;-0.13;-0.125;-0.135;-0.155;-0.15;-0.14;-0.115;-0.125;-0.125;-0.135;-0.13;-0.12;-0.11;-0.105;-0.105;-0.135;-0.12;-0.11;-0.085;-0.09;-0.11;-0.125;-0.12;-0.115;-0.105;-0.095;-0.095;-0.1;-0.1;-0.09;-0.065;-0.055;-0.07;-0.085;-0.095;-0.08;-0.075;-0.07;-0.085;-0.105;-0.1;-0.08;-0.075;-0.095;-0.11;-0.12;-0.125;-0.13;-0.095;-0.11;-0.115;-0.12;-0.11;-0.125;-0.105;-0.125;-0.13;-0.135;-0.15;-0.14;-0.14;-0.14;-0.13;-0.14;-0.155;-0.16;-0.135;-0.15;-0.16;-0.175;-0.17;-0.16;-0.145;-0.16;-0.16;-0.18;-0.195;-0.19;-0.16;-0.16;-0.195;-0.2;-0.185;-0.17;-0.17;-0.175;-0.18;-0.195;-0.195;-0.18;-0.165;-0.165;-0.16;-0.18;-0.19;-0.175;-0.15;-0.14;-0.14;-0.14;-0.12;-0.08;-0.055;-0.03;-0.045;-0.045;-0.03;0.01;0.09;0.135;0.15;0.13;0.13;0.155;0.175;0.175;0.16;0.12;0.085;0.025;-0.01;-0.035;-0.085;-0.115;-0.155;-0.18;-0.18;-0.185;-0.2;-0.21;-0.225;-0.225;-0.185;-0.19;-0.19;-0.22;-0.225;-0.245;-0.245;-0.31;-0.395;-0.42;-0.345;-0.105;0.3;0.85;1.425;1.84;2.09;2.2;2.195;2.125;1.93;1.485;0.845;0.205;-0.435;-0.61;-0.43;-0.295;-0.27;-0.275;-0.28;-0.255;-0.26;-0.295;-0.31;-0.305;-0.3;-0.315;-0.34;-0.35;-0.35;-0.325;-0.32;-0.33;-0.34;-0.345;-0.345;-0.325;-0.33;-0.32;-0.35;-0.37;-0.38;-0.36;-0.33;-0.315;-0.33;-0.345;-0.34;-0.32;-0.3;-0.29;-0.29;-0.315;-0.305;-0.3;-0.28;-0.255;-0.255;-0.27;-0.26;-0.24;-0.22;-0.21;-0.205;-0.21;-0.205;-0.2;-0.17;-0.17;-0.16;-0.165;-0.17;-0.145;-0.12;-0.1;-0.105;-0.09;-0.075;-0.045;-0.025;-0.005;-0.015;-0.015;0;0.02;0.055;0.07;0.07;0.075;0.105;0.125;0.135;0.16;0.145;0.15;0.165;0.185;0.21;0.23;0.205;0.205;0.205;0.215;0.225;0.195;0.2;0.155;0.14;0.145;0.145;0.13;0.115;0.075;0.07;0.07;0.055;0.025;-0.02;-0.025;-0.025;-0.025;-0.03;-0.055;-0.085;-0.115;-0.12;-0.12;-0.1;-0.125;-0.105;-0.125;-0.13;-0.125;-0.12;-0.125;-0.135;-0.15;-0.145;-0.135;-0.125;-0.12;-0.125;-0.125;-0.11;-0.11;-0.105;-0.085;-0.1;-0.13;-0.12;-0.11;-0.08;-0.08;-0.08;-0.105;-0.1;-0.085;-0.085;-0.1;-0.1;-0.105;-0.1;-0.08;-0.065;-0.075;-0.08;-0.09;-0.08;-0.085;-0.085;-0.08;-0.085;-0.095;-0.105;-0.1;-0.09;-0.085;-0.09;-0.11;-0.115;-0.105;-0.1;-0.11;-0.13;-0.155;-0.145;-0.14;-0.12;-0.115;-0.135;-0.16;-0.155;-0.16;-0.14;-0.15;-0.16;-0.185;-0.205;-0.205;-0.17;-0.16;-0.18;-0.2;-0.195;-0.19;-0.18;-0.185;-0.205;-0.22;-0.225;-0.215;-0.195;-0.19;-0.21;-0.23;-0.215;-0.215;-0.2;-0.21;-0.23;-0.24;-0.235;-0.235;-0.21;-0.21;-0.22;-0.235;-0.245;-0.235;-0.22;-0.225;-0.22;-0.22;-0.21;-0.18;-0.17;-0.145;-0.145;-0.145;-0.13;-0.095;-0.07;-0.05;-0.045;-0.03;0.025;0.075;0.11;0.11;0.09;0.06;0.06;0.09;0.105;0.075;-0.005;-0.08;-0.12;-0.145;-0.145;-0.18;-0.23;-0.27;-0.285;-0.27;-0.255;-0.265;-0.28;-0.3;-0.305;-0.3;-0.28;-0.275;-0.285;-0.305;-0.325;-0.37;-0.425;-0.505;-0.53;-0.475;-0.285;0.04;0.515;1.07;1.545;1.89;2.05;2.115;2.08;1.975;1.7;1.185;0.545;-0.095;-0.69;-0.665;-0.47;-0.36;-0.37;-0.39;-0.385;-0.36;-0.4;-0.42;-0.43;-0.45;-0.435;-0.44;-0.455;-0.455;-0.47;-0.455;-0.445;-0.445;-0.46;-0.475;-0.48;-0.46;-0.44;-0.435;-0.445;-0.455;-0.455;-0.445;-0.445;-0.44;-0.445;-0.47;-0.455;-0.435;-0.42;-0.41;-0.425;-0.43;-0.435;-0.415;-0.4;-0.39;-0.41;-0.425;-0.415;-0.39;-0.365;-0.365;-0.35;-0.345;-0.34;-0.325;-0.3;-0.28;-0.295;-0.305;-0.285;-0.285;-0.26;-0.24;-0.235;-0.24;-0.225;-0.19;-0.175;-0.155;-0.155;-0.18;-0.16;-0.12;-0.09;-0.055;-0.07;-0.085;-0.095;-0.08;-0.035;-0.015;-0.01;-0.025;-0.005;0.025;0.03;0.035;0.05;0.035;0.03;0.04;0.055;0.05;0.035;-0.005;0.015;-0.01;-0.02;-0.02;-0.045;-0.065;-0.075;-0.085;-0.09;-0.105;-0.13;-0.15;-0.16;-0.17;-0.16;-0.18;-0.21;-0.22;-0.22;-0.215;-0.21;-0.21;-0.23;-0.25;-0.255;-0.245;-0.22;-0.215;-0.215;-0.24;-0.245;-0.22;-0.205;-0.185;-0.2;-0.225;-0.205;-0.195;-0.165;-0.16;-0.195;-0.205;-0.205;-0.2;-0.195;-0.185;-0.205;-0.205;-0.195;-0.175;-0.16;-0.16;-0.195;-0.21;-0.225;-0.21;-0.185;-0.175;-0.175;-0.19;-0.19;-0.185;-0.18;-0.17;-0.18;-0.205;-0.2;-0.19;-0.185;-0.2;-0.215;-0.225;-0.235;-0.225;-0.205;-0.22;-0.22;-0.245;-0.245;-0.235;-0.23;-0.245;-0.245;-0.265;-0.26;-0.245;-0.245;-0.24;-0.26;-0.265;-0.27;-0.26;-0.245;-0.225;-0.24;-0.255;-0.295;-0.305;-0.285;-0.26;-0.25;-0.265;-0.275;-0.29;-0.27;-0.255;-0.265;-0.275;-0.29;-0.285;-0.275;-0.305;-0.3;-0.31;-0.295;-0.28;-0.265;-0.26;-0.28;-0.3;-0.285;-0.28;-0.265;-0.255;-0.27;-0.295;-0.29;-0.27;-0.25;-0.24;-0.245;-0.235;-0.195;-0.175;-0.15;-0.13;-0.12;-0.135;-0.13;-0.085;-0.03;0.04;0.075;0.065;0.06;0.06;0.075;0.08;0.065;0.045;0.01;-0.03;-0.075;-0.11;-0.14;-0.17;-0.205;-0.235;-0.24;-0.27;-0.32;-0.365;-0.37;-0.315;-0.305;-0.3;-0.315;-0.345;-0.335;-0.33;-0.335;-0.34;-0.37;-0.44;-0.48;-0.525;-0.505;-0.405;-0.21;0.105;0.565;1.09;1.535;1.84;1.995;2.04;2.015;1.955;1.785;1.42;0.855;0.215;-0.365;-0.655;-0.62;-0.48;-0.4;-0.4;-0.385;-0.365;-0.34;-0.34;-0.36;-0.38;-0.405;-0.41;-0.395;-0.41;-0.43;-0.46;-0.47;-0.43;-0.385;-0.37;-0.38;-0.425;-0.43;-0.42;-0.4;-0.38;-0.385;-0.4;-0.39;-0.385;-0.375;-0.355;-0.37;-0.375;-0.385;-0.38;-0.38;-0.385;-0.405;-0.415;-0.385;-0.345;-0.315;-0.335;-0.345;-0.34;-0.35;-0.325;-0.315;-0.315;-0.315;-0.33;-0.32;-0.3;-0.27;-0.27;-0.26;-0.24;-0.24;-0.22;-0.215;-0.225;-0.24;-0.24;-0.235;-0.235;-0.185;-0.17;-0.165;-0.16;-0.165;-0.145;-0.14;-0.125;-0.13;-0.135;-0.12;-0.095;-0.08;-0.07;-0.065;-0.055;-0.035;-0.015;0.01;0.035;0.035;0.02;0.015;-0.005;-0.025;-0.04;-0.035;0.005;0.005;0.02;0.02;0.02;-0.005;-0.005;-0.01;-0.02;-0.015;-0.035;-0.04;-0.06;-0.055;-0.065;-0.06;-0.065;-0.085;-0.1;-0.12;-0.125;-0.14;-0.15;-0.18;-0.215;-0.23;-0.235;-0.21;-0.205;-0.215;-0.23;-0.24;-0.21;-0.2;-0.21;-0.21;-0.225;-0.21;-0.2;-0.2;-0.205;-0.205;-0.26;-0.26;-0.22;-0.175;-0.175;-0.19;-0.225;-0.2;-0.195;-0.175;-0.18;-0.19;-0.185;-0.18;-0.185;-0.18;-0.165;-0.17;-0.175;-0.17;-0.155;-0.15;-0.155;-0.18;-0.175;-0.18;-0.165;-0.155;-0.135;-0.14;-0.165;-0.18;-0.18;-0.175;-0.19;-0.175;-0.2;-0.195;-0.19;-0.185;-0.185;-0.215;-0.225;-0.215;-0.21;-0.2;-0.215;-0.215;-0.24;-0.245;-0.235;-0.215;-0.235;-0.245;-0.255;-0.27;-0.255;-0.245;-0.255;-0.27;-0.275;-0.28;-0.27;-0.265;-0.27;-0.28;-0.295;-0.3;-0.29;-0.285;-0.28;-0.29;-0.305;-0.32;-0.295;-0.28;-0.28;-0.27;-0.29;-0.295;-0.295;-0.285;-0.285;-0.305;-0.31;-0.31;-0.31;-0.3;-0.29;-0.305;-0.32;-0.31;-0.29;-0.27;-0.26;-0.24;-0.225;-0.21;-0.19;-0.18;-0.165;-0.17;-0.175;-0.115;-0.045;0.025;0.055;0.055;0.03;0.035;0.055;0.065;0.05;0.025;-0.04;-0.1;-0.13;-0.14;-0.16;-0.185;-0.245;-0.3;-0.33;-0.345;-0.345;-0.34;-0.36;-0.365;-0.345;-0.32;-0.33;-0.36;-0.385;-0.38;-0.375;-0.365;-0.395;-0.465;-0.54;-0.54;-0.44;-0.235;0.1;0.575;1.07;1.495;1.805;1.97;2.035;2.025;1.965;1.8;1.505;0.97;0.33;-0.31;-0.86;-0.865;-0.67;-0.52;-0.46;-0.44;-0.44;-0.43;-0.44;-0.41;-0.415;-0.44;-0.47;-0.475;-0.485;-0.465;-0.455;-0.46;-0.475;-0.47;-0.47;-0.46;-0.45;-0.465;-0.49;-0.485;-0.46;-0.435;-0.43;-0.44;-0.46;-0.46;-0.435;-0.425;-0.435;-0.435;-0.44;-0.44;-0.415;-0.4;-0.38;-0.385;-0.4;-0.39;-0.385;-0.355;-0.36;-0.36;-0.38;-0.37;-0.35;-0.335;-0.325;-0.345;-0.355;-0.35;-0.345;-0.3;-0.305;-0.315;-0.31;-0.275;-0.225;-0.2;-0.21;-0.22;-0.24;-0.24;-0.24;-0.19;-0.165;-0.165;-0.185;-0.175;-0.145;-0.12;-0.095;-0.1;-0.13;-0.12;-0.09;-0.045;-0.025;-0.025;-0.045;-0.055;-0.04;-0.03;0.005;0.035;0.04;0.05;0.04;0.05;0.04;0.04;0.03;0.015;0.035;0.055;0.045;0.04;0.03;0;-0.005;-0.01;0;-0.01;-0.025;-0.035;-0.055;-0.055;-0.085;-0.1;-0.125;-0.135;-0.125;-0.14;-0.14;-0.15;-0.15;-0.155;-0.145;-0.125;-0.125;-0.135;-0.165;-0.18;-0.17;-0.165;-0.165;-0.18;-0.18;-0.17;-0.155;-0.14;-0.14;-0.14;-0.15;-0.155;-0.165;-0.14;-0.125;-0.135;-0.15;-0.13;-0.115;-0.11;-0.115;-0.115;-0.13;-0.14;-0.14;-0.12;-0.1;-0.115;-0.115;-0.115;-0.1;-0.09;-0.095;-0.09;-0.105;-0.12;-0.125;-0.115;-0.12;-0.125;-0.115;-0.11;-0.1;-0.12;-0.155;-0.2;-0.2;-0.16;-0.135;-0.115;-0.125;-0.15;-0.195;-0.23;-0.235;-0.21;-0.2;-0.205;-0.235;-0.24;-0.23;-0.215;-0.225;-0.23;-0.24;-0.245;-0.245;-0.23;-0.235;-0.24;-0.255;-0.28;-0.275;-0.26;-0.285;-0.28;-0.305;-0.29;-0.285;-0.25;-0.27;-0.27;-0.27;-0.285;-0.27;-0.28;-0.29;-0.295;-0.29;-0.29;-0.28;-0.255;-0.23;-0.24;-0.245;-0.25;-0.24;-0.225;-0.215;-0.215;-0.21;-0.195;-0.18;-0.16;-0.12;-0.07;-0.03;-0.005;0.025;0.035;0.04;0.045;0.035;0.035;0.01;-0.02;-0.055;-0.125;-0.18;-0.2;-0.24;-0.25;-0.29;-0.315;-0.36;-0.36;-0.36;-0.33;-0.34;-0.35;-0.365;-0.375;-0.365;-0.35;-0.34;-0.36;-0.405;-0.46;-0.5;-0.465;-0.325;-0.085;0.29;0.81;1.34;1.735;1.93;1.99;1.93;1.81;1.53;1.015;0.375;-0.265;-0.885;-0.9;-0.73;-0.58;-0.525;-0.52;-0.525;-0.495;-0.475;-0.45;-0.46;-0.495;-0.5;-0.515;-0.515;-0.49;-0.495;-0.5;-0.52;-0.55;-0.53;-0.5;-0.49;-0.495;-0.525;-0.53;-0.52;-0.515;-0.505;-0.5;-0.515;-0.505;-0.505;-0.48;-0.49;-0.49;-0.51;-0.505;-0.5;-0.48;-0.475;-0.47;-0.485;-0.47;-0.465;-0.445;-0.44;-0.46;-0.465;-0.465;-0.46;-0.415;-0.415;-0.395;-0.41;-0.405;-0.4;-0.37;-0.355;-0.36;-0.365;-0.365;-0.345;-0.32;-0.3;-0.29;-0.305;-0.31;-0.29;-0.275;-0.265;-0.255;-0.25;-0.235;-0.205;-0.2;-0.19;-0.195;-0.195;-0.17;-0.155;-0.135;-0.11;-0.11;-0.115;-0.11;-0.11;-0.08;-0.085;-0.085;-0.085;-0.085;-0.095;-0.075;-0.09;-0.115;-0.135;-0.145;-0.135;-0.135;-0.145;-0.17;-0.19;-0.205;-0.215;-0.225;-0.23;-0.255;-0.285;-0.29;-0.305;-0.295;-0.305;-0.325;-0.345;-0.345;-0.355;-0.35;-0.335;-0.36;-0.385;-0.39;-0.375;-0.355;-0.36;-0.36;-0.39;-0.385;-0.38;-0.34;-0.35;-0.35;-0.35;-0.36;-0.35;-0.335;-0.33;-0.35;-0.355;-0.345;-0.335;-0.32;-0.305;-0.32;-0.34;-0.335;-0.315;-0.31;-0.3;-0.31;-0.325;-0.335;-0.31;-0.3;-0.3;-0.315;-0.315;-0.32;-0.32;-0.295;-0.3;-0.31;-0.32;-0.33;-0.315;-0.32;-0.325;-0.335;-0.345;-0.355;-0.355;-0.35;-0.325;-0.335;-0.36;-0.37;-0.36;-0.365;-0.375;-0.38;-0.4;-0.41;-0.39;-0.38;-0.385;-0.4;-0.415;-0.405;-0.415;-0.4;-0.39;-0.4;-0.425;-0.425;-0.415;-0.42;-0.415;-0.42;-0.43;-0.44;-0.43;-0.41;-0.41;-0.42;-0.42;-0.435;-0.41;-0.395;-0.375;-0.365;-0.365;-0.35;-0.31;-0.28;-0.27;-0.265;-0.245;-0.195;-0.11;-0.06;-0.055;-0.065;-0.07;-0.06;-0.05;-0.04;-0.085;-0.125;-0.185;-0.205;-0.235;-0.28;-0.355;-0.44;-0.475
2;0;-0.39;-0.375;-0.365;-0.37;-0.365;-0.38;-0.385;-0.39;-0.375;-0.38;-0.38;-0.39;-0.395;-0.385;-0.38;-0.375;-0.39;-0.39;-0.39;-0.38;-0.365;-0.35;-0.355;-0.38;-0.385;-0.36;-0.34;-0.32;-0.315;-0.325;-0.31;-0.29;-0.24;-0.235;-0.225;-0.235;-0.235;-0.19;-0.125;-0.085;-0.065;-0.065;-0.065;-0.05;-0.05;-0.03;-0.035;-0.055;-0.08;-0.125;-0.155;-0.18;-0.225;-0.255;-0.285;-0.295;-0.315;-0.325;-0.345;-0.365;-0.385;-0.365;-0.365;-0.355;-0.375;-0.4;-0.4;-0.395;-0.37;-0.375;-0.38;-0.41;-0.435;-0.445;-0.455;-0.445;-0.4;-0.25;-0.01;0.37;0.83;1.255;1.6;1.79;1.89;1.915;1.88;1.755;1.49;1.04;0.44;-0.18;-0.56;-0.615;-0.51;-0.435;-0.445;-0.46;-0.445;-0.425;-0.425;-0.435;-0.455;-0.465;-0.455;-0.43;-0.44;-0.46;-0.475;-0.485;-0.475;-0.475;-0.475;-0.47;-0.475;-0.485;-0.465;-0.455;-0.46;-0.475;-0.47;-0.455;-0.455;-0.45;-0.44;-0.465;-0.46;-0.455;-0.44;-0.435;-0.445;-0.435;-0.45;-0.435;-0.42;-0.42;-0.415;-0.41;-0.42;-0.4;-0.39;-0.38;-0.375;-0.38;-0.385;-0.375;-0.365;-0.35;-0.355;-0.355;-0.34;-0.32;-0.295;-0.29;-0.285;-0.28;-0.28;-0.25;-0.225;-0.215;-0.2;-0.2;-0.215;-0.185;-0.13;-0.085;-0.09;-0.095;-0.075;-0.04;-0.015;0.02;0.01;0.02;0.04;0.08;0.095;0.125;0.135;0.13;0.15;0.175;0.195;0.19;0.185;0.16;0.145;0.145;0.15;0.15;0.12;0.105;0.075;0.055;0.05;0.04;-0.005;-0.01;-0.045;-0.07;-0.075;-0.095;-0.12;-0.15;-0.185;-0.2;-0.205;-0.205;-0.215;-0.245;-0.26;-0.27;-0.265;-0.27;-0.28;-0.305;-0.325;-0.325;-0.305;-0.315;-0.32;-0.34;-0.355;-0.355;-0.345;-0.34;-0.35;-0.37;-0.385;-0.37;-0.355;-0.335;-0.335;-0.36;-0.36;-0.345;-0.315;-0.305;-0.32;-0.325;-0.325;-0.31;-0.305;-0.29;-0.3;-0.305;-0.305;-0.295;-0.28;-0.265;-0.265;-0.27;-0.265;-0.265;-0.25;-0.235;-0.22;-0.22;-0.25;-0.22;-0.22;-0.21;-0.215;-0.225;-0.23;-0.22;-0.235;-0.21;-0.205;-0.22;-0.225;-0.235;-0.23;-0.22;-0.245;-0.245;-0.245;-0.25;-0.255;-0.23;-0.225;-0.245;-0.26;-0.285;-0.27;-0.26;-0.265;-0.275;-0.295;-0.28;-0.26;-0.255;-0.28;-0.305;-0.31;-0.3;-0.28;-0.29;-0.295;-0.31;-0.325;-0.315;-0.31;-0.305;-0.31;-0.315;-0.325;-0.325;-0.305;-0.305;-0.315;-0.32;-0.34;-0.32;-0.315;-0.325;-0.33;-0.33;-0.335;-0.33;-0.33;-0.31;-0.32;-0.33;-0.34;-0.33;-0.315;-0.3;-0.3;-0.305;-0.33;-0.32;-0.32;-0.305;-0.31;-0.35;-0.345;-0.335;-0.335;-0.31;-0.32;-0.325;-0.34;-0.33;-0.33;-0.325;-0.325;-0.345;-0.345;-0.34;-0.325;-0.315;-0.32;-0.33;-0.35;-0.345;-0.325;-0.31;-0.33;-0.35;-0.34;-0.34;-0.34;-0.325;-0.335;-0.355;-0.36;-0.355;-0.33;-0.31;-0.33;-0.345;-0.355;-0.335;-0.33;-0.325;-0.32;-0.34;-0.35;-0.34;-0.315;-0.31;-0.305;-0.335;-0.34;-0.33;-0.315;-0.31;-0.315;-0.32;-0.315;-0.295;-0.275;-0.25;-0.225;-0.225;-0.21;-0.2;-0.17;-0.145;-0.135;-0.115;-0.1;-0.04;0.005;0.015;0.025;0;-0.025;-0.045;-0.055;-0.07;-0.1;-0.15;-0.185;-0.2;-0.205;-0.24;-0.255;-0.29;-0.315;-0.32;-0.3;-0.3;-0.3;-0.32;-0.345;-0.32;-0.31;-0.29;-0.305;-0.32;-0.35;-0.365;-0.38;-0.37;-0.325;-0.21;0.015;0.365;0.81;1.195;1.51;1.705;1.815;1.835;1.805;1.665;1.34;0.865;0.285;-0.235;-0.465;-0.425;-0.33;-0.335;-0.355;-0.36;-0.35;-0.33;-0.345;-0.37;-0.41;-0.405;-0.4;-0.395;-0.41;-0.425;-0.425;-0.43;-0.425;-0.41;-0.435;-0.435;-0.44;-0.435;-0.42;-0.405;-0.41;-0.42;-0.435;-0.435;-0.415;-0.405;-0.395;-0.395;-0.405;-0.395;-0.39;-0.375;-0.38;-0.385;-0.39;-0.38;-0.385;-0.375;-0.365;-0.38;-0.375;-0.36;-0.34;-0.315;-0.32;-0.33;-0.33;-0.315;-0.3;-0.27;-0.26;-0.265;-0.26;-0.265;-0.225;-0.205;-0.205;-0.2;-0.2;-0.19;-0.165;-0.145;-0.125;-0.11;-0.1;-0.09;-0.06;-0.03;-0.015;-0.02;-0.015;0;0.04;0.075;0.095;0.105;0.125;0.14;0.175;0.195;0.21;0.2;0.19;0.21;0.23;0.235;0.235;0.22;0.21;0.205;0.205;0.21;0.175;0.15;0.105;0.095;0.08;0.07;0.04;-0.01;-0.03;-0.045;-0.055;-0.075;-0.09;-0.13;-0.145;-0.165;-0.165;-0.175;-0.19;-0.225;-0.245;-0.23;-0.235;-0.23;-0.26;-0.27;-0.285;-0.285;-0.275;-0.27;-0.3;-0.31;-0.31;-0.305;-0.315;-0.285;-0.3;-0.32;-0.31;-0.32;-0.295;-0.28;-0.3;-0.3;-0.315;-0.29;-0.285;-0.28;-0.28;-0.285;-0.29;-0.29;-0.275;-0.255;-0.255;-0.265;-0.26;-0.26;-0.24;-0.23;-0.235;-0.25;-0.25;-0.255;-0.225;-0.21;-0.23;-0.22;-0.235;-0.235;-0.215;-0.215;-0.23;-0.235;-0.24;-0.24;-0.225;-0.22;-0.225;-0.245;-0.25;-0.245;-0.24;-0.24;-0.24;-0.25;-0.28;-0.27;-0.255;-0.24;-0.255;-0.275;-0.28;-0.28;-0.275;-0.25;-0.27;-0.295;-0.29;-0.285;-0.285;-0.275;-0.285;-0.3;-0.3;-0.305;-0.295;-0.28;-0.29;-0.295;-0.305;-0.305;-0.3;-0.285;-0.3;-0.305;-0.315;-0.315;-0.315;-0.305;-0.305;-0.325;-0.32;-0.325;-0.315;-0.305;-0.315;-0.33;-0.33;-0.33;-0.315;-0.305;-0.33;-0.32;-0.335;-0.32;-0.315;-0.29;-0.305;-0.325;-0.345;-0.33;-0.315;-0.31;-0.31;-0.315;-0.32;-0.315;-0.3;-0.3;-0.305;-0.315;-0.33;-0.315;-0.3;-0.28;-0.295;-0.305;-0.33;-0.33;-0.305;-0.295;-0.31;-0.305;-0.335;-0.33;-0.31;-0.3;-0.31;-0.315;-0.31;-0.31;-0.29;-0.29;-0.295;-0.305;-0.31;-0.305;-0.295;-0.29;-0.29;-0.31;-0.305;-0.29;-0.285;-0.255;-0.25;-0.25;-0.25;-0.225;-0.215;-0.175;-0.16;-0.17;-0.15;-0.135;-0.08;-0.03;0.015;0.02;0.005;0.005;-0.015;-0.035;-0.065;-0.075;-0.1;-0.11;-0.125;-0.15;-0.165;-0.215;-0.235;-0.245;-0.27;-0.275;-0.295;-0.31;-0.31;-0.295;-0.29;-0.27;-0.285;-0.29;-0.3;-0.31;-0.29;-0.3;-0.315;-0.34;-0.32;-0.195;0.01;0.31;0.685;1.055;1.36;1.575;1.705;1.74;1.67;1.52;1.2;0.755;0.215;-0.23;-0.435;-0.42;-0.345;-0.31;-0.32;-0.325;-0.34;-0.345;-0.36;-0.365;-0.38;-0.37;-0.395;-0.38;-0.4;-0.415;-0.415;-0.395;-0.4;-0.42;-0.43;-0.43;-0.415;-0.41;-0.405;-0.42;-0.435;-0.42;-0.415;-0.4;-0.395;-0.415;-0.41;-0.41;-0.395;-0.38;-0.39;-0.39;-0.4;-0.4;-0.37;-0.365;-0.36;-0.355;-0.365;-0.355;-0.33;-0.315;-0.31;-0.33;-0.325;-0.325;-0.29;-0.28;-0.27;-0.275;-0.275;-0.265;-0.25;-0.225;-0.215;-0.22;-0.22;-0.2;-0.18;-0.145;-0.14;-0.135;-0.13;-0.105;-0.08;-0.05;-0.04;-0.025;-0.04;0;0.02;0.04;0.065;0.08;0.095;0.115;0.15;0.175;0.19;0.185;0.18;0.19;0.215;0.22;0.22;0.2;0.195;0.195;0.185;0.2;0.165;0.145;0.125;0.11;0.11;0.095;0.05;0.025;0;-0.015;-0.015;-0.03;-0.06;-0.085;-0.12;-0.135;-0.145;-0.145;-0.16;-0.185;-0.21;-0.21;-0.205;-0.2;-0.23;-0.24;-0.255;-0.265;-0.255;-0.25;-0.275;-0.285;-0.295;-0.29;-0.285;-0.29;-0.285;-0.29;-0.305;-0.285;-0.275;-0.255;-0.255;-0.275;-0.28;-0.265;-0.25;-0.23;-0.235;-0.245;-0.26;-0.235;-0.21;-0.19;-0.205;-0.2;-0.215;-0.205;-0.18;-0.16;-0.18;-0.175;-0.18;-0.18;-0.17;-0.155;-0.16;-0.175;-0.175;-0.18;-0.165;-0.15;-0.15;-0.165;-0.175;-0.18;-0.155;-0.155;-0.155;-0.18;-0.2;-0.19;-0.185;-0.185;-0.19;-0.195;-0.21;-0.21;-0.2;-0.2;-0.205;-0.21;-0.235;-0.245;-0.235;-0.21;-0.23;-0.245;-0.24;-0.24;-0.235;-0.24;-0.24;-0.25;-0.27;-0.26;-0.245;-0.24;-0.245;-0.25;-0.27;-0.265;-0.25;-0.23;-0.24;-0.26;-0.265;-0.285;-0.265;-0.25;-0.275;-0.275;-0.29;-0.29;-0.28;-0.255;-0.26;-0.29;-0.28;-0.29;-0.275;-0.255;-0.265;-0.27;-0.285;-0.285;-0.275;-0.255;-0.265;-0.285;-0.28;-0.28;-0.285;-0.275;-0.28;-0.28;-0.28;-0.275;-0.27;-0.255;-0.25;-0.26;-0.27;-0.28;-0.255;-0.245;-0.255;-0.26;-0.27;-0.255;-0.265;-0.245;-0.245;-0.265;-0.275;-0.26;-0.255;-0.245;-0.245;-0.255;-0.265;-0.26;-0.26;-0.225;-0.235;-0.25;-0.25;-0.245;-0.23;-0.215;-0.225;-0.235;-0.25;-0.24;-0.235;-0.21;-0.21;-0.21;-0.23;-0.21;-0.205;-0.17;-0.175;-0.18;-0.16;-0.15;-0.11;-0.08;-0.085;-0.085;-0.07;-0.035;0.015;0.06;0.085;0.085;0.05;0.04;0.02;0.03;0.01;-0.01;-0.055;-0.06;-0.085;-0.08;-0.115;-0.15;-0.175;-0.18;-0.185;-0.18;-0.205;-0.19;-0.195;-0.2;-0.185;-0.16;-0.17;-0.175;-0.19;-0.195;-0.18;-0.185;-0.175;-0.12;0.005;0.26;0.59;0.96;1.275;1.48;1.58;1.595;1.56;1.42;1.125;0.705;0.205;-0.165;-0.285;-0.21;-0.165;-0.19;-0.225;-0.235;-0.225;-0.22;-0.225;-0.27;-0.295;-0.29;-0.295;-0.285;-0.3;-0.305;-0.325;-0.34;-0.32;-0.32;-0.31;-0.33;-0.335;-0.34;-0.325;-0.305;-0.3;-0.315;-0.315;-0.315;-0.305;-0.285;-0.29;-0.29;-0.32;-0.315;-0.285;-0.29;-0.275;-0.275;-0.29;-0.28;-0.27;-0.26;-0.27;-0.27;-0.265;-0.265;-0.25;-0.235;-0.225;-0.24;-0.24;-0.22;-0.2;-0.195;-0.2;-0.19;-0.195;-0.185;-0.16;-0.14;-0.135;-0.13;-0.135;-0.1;-0.085;-0.065;-0.055;-0.05;-0.035;-0.025;0.005;0.025;0.03;0.035;0.06;0.065;0.105;0.14;0.135;0.13;0.155;0.16;0.185;0.23;0.23;0.235;0.22;0.235;0.245;0.25;0.25;0.24;0.22;0.205;0.215;0.215;0.19;0.16;0.125;0.1;0.08;0.1;0.08;0.04;0.015;-0.005;-0.02;-0.03;-0.045;-0.07;-0.09;-0.105;-0.105;-0.11;-0.125;-0.155;-0.165;-0.175;-0.185;-0.16;-0.185;-0.215;-0.22;-0.22;-0.205;-0.21;-0.205;-0.23;-0.235;-0.245;-0.225;-0.21;-0.225;-0.235;-0.24;-0.23;-0.225;-0.205;-0.2;-0.215;-0.22;-0.215;-0.2;-0.185;-0.18;-0.185;-0.195;-0.185;-0.18;-0.17;-0.18;-0.17;-0.165;-0.15;-0.15;-0.12;-0.14;-0.145;-0.145;-0.13;-0.12;-0.105;-0.115;-0.125;-0.14;-0.13;-0.125;-0.11;-0.115;-0.14;-0.14;-0.15;-0.14;-0.115;-0.135;-0.14;-0.16;-0.15;-0.15;-0.145;-0.155;-0.175;-0.195;-0.19;-0.18;-0.17;-0.185;-0.2;-0.205;-0.22;-0.185;-0.185;-0.215;-0.225;-0.235;-0.225;-0.21;-0.21;-0.22;-0.235;-0.25;-0.245;-0.245;-0.225;-0.235;-0.25;-0.265;-0.235;-0.235;-0.235;-0.235;-0.255;-0.275;-0.245;-0.25;-0.245;-0.245;-0.245;-0.265;-0.27;-0.27;-0.255;-0.27;-0.26;-0.27;-0.275;-0.265;-0.255;-0.255;-0.265;-0.28;-0.275;-0.265;-0.25;-0.265;-0.265;-0.275;-0.275;-0.27;-0.26;-0.26;-0.265;-0.285;-0.27;-0.27;-0.27;-0.26;-0.29;-0.3;-0.275;-0.275;-0.25;-0.265;-0.27;-0.275;-0.28;-0.275;-0.26;-0.27;-0.28;-0.285;-0.29;-0.275;-0.255;-0.255;-0.275;-0.275;-0.275;-0.28;-0.265;-0.26;-0.265;-0.27;-0.275;-0.26;-0.245;-0.255;-0.265;-0.27;-0.255;-0.25;-0.23;-0.235;-0.24;-0.25;-0.245;-0.235;-0.215;-0.21;-0.225;-0.22;-0.205;-0.185;-0.145;-0.13;-0.13;-0.13;-0.115;-0.075;-0.05;-0.03;-0.01;0.025;0.05;0.05;0.05;0.03;-0.015;-0.035;-0.025;-0.03;-0.04;-0.055;-0.1;-0.135;-0.16;-0.15;-0.145;-0.17;-0.19;-0.215;-0.215;-0.19;-0.18;-0.185;-0.19;-0.195;-0.19;-0.18;-0.16;-0.165;-0.17;-0.185;-0.165;-0.12;-0.035;0.105;0.27;0.535;0.83;1.08;1.275;1.385;1.39;1.355;1.265;1.085;0.79;0.38;0;-0.235;-0.275;-0.23;-0.185;-0.2;-0.245;-0.27;-0.255;-0.27;-0.25;-0.275;-0.285;-0.31;-0.32;-0.315;-0.315;-0.31;-0.325;-0.345;-0.335;-0.34;-0.33;-0.335;-0.35;-0.345;-0.355;-0.345;-0.31;-0.335;-0.335;-0.345;-0.35;-0.33;-0.32;-0.32;-0.325;-0.345;-0.34;-0.32;-0.295;-0.29;-0.305;-0.31;-0.305;-0.28;-0.285;-0.285;-0.285;-0.285;-0.295;-0.27;-0.25;-0.275;-0.255;-0.26;-0.255;-0.235;-0.22;-0.215;-0.23;-0.225;-0.205;-0.185;-0.155;-0.155;-0.15;-0.155;-0.14;-0.11;-0.08;-0.075;-0.075;-0.07;-0.045;-0.03;0;0.005;0.02;0.015;0.03;0.055;0.09;0.095;0.095;0.105;0.12;0.145;0.16;0.175;0.16;0.155;0.155;0.175;0.19;0.17;0.15;0.145;0.13;0.13;0.15;0.12;0.1;0.07;0.065;0.06;0.045;0.035;0;-0.04;-0.045;-0.045;-0.065;-0.07;-0.105;-0.12;-0.135;-0.14;-0.145;-0.17;-0.19;-0.215;-0.23;-0.215;-0.22;-0.225;-0.24;-0.27;-0.26;-0.265;-0.245;-0.26;-0.28;-0.295;-0.28;-0.28;-0.285;-0.275;-0.285;-0.3;-0.285;-0.27;-0.255;-0.245;-0.265;-0.28;-0.28;-0.27;-0.25;-0.255;-0.255;-0.265;-0.26;-0.24;-0.245;-0.215;-0.24;-0.245;-0.23;-0.22;-0.2;-0.21;-0.21;-0.22;-0.21;-0.21;-0.2;-0.18;-0.19;-0.2;-0.205;-0.18;-0.185;-0.17;-0.175;-0.195;-0.18;-0.175;-0.16;-0.17;-0.19;-0.2;-0.195;-0.19;-0.19;-0.19;-0.205;-0.225;-0.215;-0.205;-0.2;-0.215;-0.22;-0.24;-0.245;-0.245;-0.225;-0.235;-0.25;-0.26;-0.265;-0.25;-0.235;-0.245;-0.25;-0.275;-0.275;-0.265;-0.27;-0.265;-0.275;-0.295;-0.285;-0.27;-0.275;-0.27;-0.29;-0.29;-0.295;-0.29;-0.275;-0.285;-0.3;-0.31;-0.3;-0.295;-0.285;-0.285;-0.3;-0.305;-0.3;-0.3;-0.29;-0.29;-0.305;-0.32;-0.315;-0.31;-0.285;-0.31;-0.305;-0.32;-0.32;-0.305;-0.3;-0.295;-0.31;-0.32;-0.315;-0.32;-0.295;-0.3;-0.325;-0.335;-0.335;-0.33;-0.325;-0.3;-0.32;-0.33;-0.33;-0.32;-0.31;-0.31;-0.33;-0.35;-0.345;-0.33;-0.305;-0.3;-0.33;-0.355;-0.325;-0.32;-0.305;-0.305;-0.315;-0.335;-0.34;-0.33;-0.31;-0.325;-0.31;-0.335;-0.34;-0.325;-0.29;-0.295;-0.315;-0.315;-0.305;-0.29;-0.285;-0.29;-0.305;-0.305;-0.3;-0.285;-0.26;-0.255;-0.26;-0.26;-0.25;-0.225;-0.205;-0.18;-0.18;-0.18;-0.175;-0.135;-0.105;-0.08;-0.06;-0.045;-0.035;-0.03;-0.04;-0.05;-0.085;-0.11;-0.12;-0.11;-0.11;-0.14;-0.165;-0.195;-0.22;-0.22;-0.22;-0.24;-0.26;-0.295;-0.285;-0.29;-0.275;-0.27;-0.275;-0.29;-0.29;-0.285;-0.255;-0.265;-0.26;-0.27;-0.275;-0.265;-0.24;-0.2;-0.145;-0.04;0.125;0.35;0.61;0.84;1.015;1.12;1.165;1.19;1.145;1.01;0.77;0.455;0.11;-0.19;-0.305;-0.315;-0.3;-0.31;-0.34;-0.325;-0.34;-0.34;-0.365;-0.38;-0.39;-0.39;-0.395;-0.42;-0.425;-0.445;-0.45;-0.44;-0.435;-0.44;-0.46;-0.47;-0.47;-0.465;-0.45;-0.465;-0.46;-0.47;-0.485;-0.455;-0.435;-0.44;-0.45;-0.45;-0.45;-0.45;-0.43;-0.435;-0.43;-0.43;-0.435;-0.425;-0.415;-0.405;-0.405;-0.425;-0.42;-0.39;-0.385;-0.395;-0.4;-0.405;-0.38;-0.38;-0.36;-0.355;-0.375;-0.36;-0.355;-0.335;-0.31;-0.32;-0.32;-0.33;-0.315;-0.28;-0.265;-0.265;-0.265;-0.27;-0.265;-0.23;-0.21;-0.205;-0.205;-0.2;-0.185;-0.165;-0.135;-0.13;-0.13;-0.13;-0.12;-0.09;-0.055;-0.04;-0.04;-0.04;-0.03;-0.005;0.025;0.025;0.04;0.035;0.045;0.05;0.065;0.07;0.06;0.035;0.045;0.045;0.07;0.06;0.045;0.015;0.015;0.005;0;0;-0.04;-0.065;-0.085;-0.095;-0.09;-0.105;-0.13;-0.15;-0.175;-0.175;-0.19;-0.215;-0.23;-0.255;-0.26;-0.265;-0.27;-0.275;-0.31;-0.325;-0.33;-0.335;-0.33;-0.325;-0.34;-0.36;-0.36;-0.35;-0.34;-0.355;-0.36;-0.39;-0.385;-0.38;-0.37;-0.365;-0.37;-0.38;-0.385;-0.365;-0.355;-0.35;-0.36;-0.38;-0.365;-0.36;-0.36;-0.34;-0.355;-0.36;-0.365;-0.35;-0.32;-0.345;-0.34;-0.345;-0.355;-0.335;-0.315;-0.31;-0.335;-0.335;-0.33;-0.315;-0.3;-0.3;-0.305;-0.325;-0.305;-0.31;-0.29;-0.29;-0.305;-0.315;-0.31;-0.305;-0.285;-0.29;-0.295;-0.315;-0.32;-0.315;-0.305;-0.315;-0.32;-0.335;-0.345;-0.335;-0.34;-0.33;-0.35;-0.365;-0.37;-0.35;-0.34;-0.35;-0.365;-0.38;-0.385;-0.38;-0.38;-0.385;-0.395;-0.4;-0.4;-0.395;-0.385;-0.39;-0.41;-0.415;-0.415;-0.415;-0.4;-0.41;-0.43;-0.42;-0.43;-0.41;-0.405;-0.41;-0.425;-0.435;-0.44;-0.41;-0.395;-0.41;-0.42;-0.435;-0.435;-0.42;-0.41;-0.41;-0.43;-0.445;-0.435;-0.43;-0.42;-0.42;-0.425;-0.445;-0.465;-0.435;-0.42;-0.42;-0.435;-0.43;-0.44;-0.425;-0.42;-0.43;-0.445;-0.455;-0.45;-0.445;-0.425;-0.43;-0.445;-0.455;-0.46;-0.45;-0.435;-0.44;-0.455;-0.465;-0.47;-0.435;-0.425;-0.43;-0.435;-0.46;-0.455;-0.43;-0.42;-0.415;-0.425;-0.44;-0.44;-0.42;-0.405;-0.39;-0.4;-0.415;-0.41;-0.365;-0.345;-0.34;-0.345;-0.36;-0.345;-0.33;-0.285;-0.275;-0.265
3;0;-0.115;-0.12;-0.115;-0.1;-0.11;-0.13;-0.145;-0.145;-0.145;-0.125;-0.13;-0.135;-0.15;-0.155;-0.15;-0.14;-0.135;-0.15;-0.17;-0.18;-0.17;-0.15;-0.16;-0.175;-0.19;-0.205;-0.18;-0.17;-0.175;-0.17;-0.195;-0.205;-0.205;-0.195;-0.175;-0.18;-0.21;-0.21;-0.2;-0.18;-0.18;-0.195;-0.21;-0.21;-0.21;-0.205;-0.19;-0.195;-0.215;-0.235;-0.22;-0.205;-0.205;-0.195;-0.23;-0.23;-0.23;-0.215;-0.22;-0.21;-0.225;-0.23;-0.22;-0.21;-0.215;-0.215;-0.23;-0.225;-0.225;-0.21;-0.205;-0.205;-0.24;-0.24;-0.23;-0.215;-0.215;-0.225;-0.225;-0.22;-0.205;-0.185;-0.18;-0.19;-0.195;-0.185;-0.195;-0.18;-0.155;-0.155;-0.165;-0.145;-0.13;-0.105;-0.1;-0.09;-0.11;-0.075;-0.06;-0.02;0;0.01;0.005;0.01;0.025;0.035;0.03;0.025;0.005;-0.015;-0.03;-0.04;-0.055;-0.07;-0.095;-0.12;-0.13;-0.135;-0.135;-0.155;-0.17;-0.175;-0.155;-0.145;-0.14;-0.135;-0.15;-0.14;-0.135;-0.11;-0.1;-0.105;-0.12;-0.105;-0.06;0.02;0.125;0.245;0.425;0.61;0.8;0.92;0.97;0.98;0.94;0.88;0.775;0.58;0.345;0.085;-0.105;-0.145;-0.125;-0.115;-0.13;-0.16;-0.19;-0.195;-0.205;-0.205;-0.22;-0.23;-0.255;-0.28;-0.285;-0.265;-0.275;-0.28;-0.305;-0.315;-0.31;-0.295;-0.295;-0.305;-0.315;-0.33;-0.31;-0.295;-0.3;-0.305;-0.33;-0.34;-0.315;-0.305;-0.3;-0.315;-0.31;-0.315;-0.305;-0.285;-0.29;-0.285;-0.31;-0.31;-0.285;-0.27;-0.285;-0.27;-0.285;-0.28;-0.26;-0.24;-0.235;-0.24;-0.25;-0.25;-0.235;-0.22;-0.205;-0.2;-0.21;-0.2;-0.19;-0.165;-0.17;-0.17;-0.175;-0.17;-0.14;-0.125;-0.095;-0.09;-0.1;-0.09;-0.075;-0.045;-0.025;-0.04;-0.04;-0.01;0.01;0.04;0.04;0.055;0.055;0.055;0.065;0.09;0.105;0.1;0.095;0.095;0.11;0.12;0.13;0.115;0.1;0.085;0.085;0.095;0.095;0.065;0.05;0.035;0.04;0.04;0.03;-0.01;-0.025;-0.035;-0.045;-0.035;-0.055;-0.075;-0.105;-0.115;-0.125;-0.12;-0.13;-0.155;-0.185;-0.195;-0.19;-0.185;-0.18;-0.2;-0.21;-0.225;-0.225;-0.22;-0.225;-0.23;-0.24;-0.25;-0.245;-0.245;-0.225;-0.245;-0.255;-0.265;-0.255;-0.245;-0.235;-0.26;-0.25;-0.26;-0.255;-0.235;-0.22;-0.225;-0.23;-0.235;-0.24;-0.215;-0.21;-0.22;-0.22;-0.23;-0.215;-0.2;-0.2;-0.195;-0.2;-0.21;-0.19;-0.18;-0.175;-0.18;-0.19;-0.185;-0.175;-0.18;-0.165;-0.165;-0.185;-0.195;-0.175;-0.165;-0.16;-0.175;-0.195;-0.185;-0.175;-0.165;-0.17;-0.185;-0.205;-0.205;-0.195;-0.185;-0.17;-0.19;-0.205;-0.205;-0.2;-0.19;-0.19;-0.2;-0.21;-0.21;-0.21;-0.205;-0.215;-0.205;-0.225;-0.22;-0.225;-0.215;-0.215;-0.225;-0.235;-0.24;-0.25;-0.23;-0.225;-0.24;-0.255;-0.265;-0.25;-0.235;-0.235;-0.245;-0.26;-0.27;-0.265;-0.25;-0.245;-0.255;-0.265;-0.28;-0.27;-0.245;-0.255;-0.245;-0.265;-0.28;-0.275;-0.255;-0.24;-0.245;-0.265;-0.265;-0.26;-0.25;-0.245;-0.245;-0.255;-0.265;-0.25;-0.245;-0.235;-0.245;-0.255;-0.27;-0.245;-0.235;-0.24;-0.24;-0.255;-0.255;-0.245;-0.225;-0.205;-0.205;-0.23;-0.235;-0.215;-0.19;-0.185;-0.175;-0.175;-0.17;-0.145;-0.125;-0.11;-0.12;-0.09;-0.105;-0.07;-0.05;-0.025;-0.035;-0.04;-0.025;0;0.005;-0.005;-0.025;-0.065;-0.09;-0.085;-0.09;-0.125;-0.12;-0.145;-0.145;-0.155;-0.155;-0.155;-0.16;-0.175;-0.18;-0.17;-0.155;-0.145;-0.165;-0.155;-0.155;-0.125;-0.105;-0.09;-0.08;-0.09;-0.035;0.05;0.19;0.365;0.555;0.705;0.82;0.895;0.92;0.905;0.83;0.685;0.49;0.255;0.02;-0.12;-0.145;-0.165;-0.16;-0.18;-0.19;-0.185;-0.195;-0.215;-0.225;-0.245;-0.245;-0.245;-0.255;-0.28;-0.28;-0.285;-0.265;-0.285;-0.275;-0.295;-0.3;-0.3;-0.3;-0.28;-0.295;-0.3;-0.315;-0.31;-0.305;-0.295;-0.29;-0.305;-0.3;-0.3;-0.285;-0.285;-0.285;-0.295;-0.29;-0.28;-0.265;-0.27;-0.265;-0.275;-0.275;-0.265;-0.25;-0.235;-0.24;-0.245;-0.235;-0.225;-0.21;-0.19;-0.2;-0.205;-0.2;-0.175;-0.175;-0.16;-0.165;-0.165;-0.155;-0.13;-0.11;-0.1;-0.1;-0.115;-0.11;-0.08;-0.05;-0.05;-0.025;-0.03;-0.02;0.005;0.015;0.035;0.04;0.035;0.04;0.08;0.1;0.115;0.115;0.12;0.125;0.145;0.16;0.165;0.165;0.155;0.15;0.165;0.165;0.17;0.15;0.135;0.11;0.105;0.105;0.105;0.085;0.06;0.055;0.045;0.035;0.025;0.02;-0.02;-0.025;-0.025;-0.025;-0.04;-0.06;-0.085;-0.1;-0.11;-0.11;-0.1;-0.125;-0.145;-0.155;-0.15;-0.14;-0.145;-0.155;-0.165;-0.18;-0.185;-0.17;-0.175;-0.185;-0.2;-0.205;-0.195;-0.175;-0.16;-0.175;-0.19;-0.205;-0.2;-0.17;-0.165;-0.16;-0.18;-0.17;-0.175;-0.155;-0.15;-0.155;-0.165;-0.15;-0.145;-0.145;-0.13;-0.13;-0.14;-0.14;-0.13;-0.11;-0.115;-0.105;-0.13;-0.115;-0.11;-0.085;-0.08;-0.08;-0.115;-0.105;-0.09;-0.095;-0.08;-0.1;-0.105;-0.105;-0.1;-0.09;-0.085;-0.1;-0.12;-0.12;-0.11;-0.095;-0.1;-0.12;-0.13;-0.12;-0.125;-0.105;-0.105;-0.12;-0.13;-0.135;-0.135;-0.12;-0.125;-0.125;-0.15;-0.16;-0.15;-0.145;-0.14;-0.145;-0.16;-0.18;-0.17;-0.16;-0.145;-0.165;-0.175;-0.185;-0.185;-0.175;-0.165;-0.165;-0.185;-0.195;-0.175;-0.175;-0.175;-0.18;-0.2;-0.195;-0.2;-0.185;-0.17;-0.175;-0.19;-0.21;-0.19;-0.18;-0.185;-0.185;-0.2;-0.205;-0.21;-0.19;-0.18;-0.21;-0.205;-0.2;-0.2;-0.19;-0.17;-0.2;-0.21;-0.205;-0.2;-0.185;-0.185;-0.185;-0.185;-0.19;-0.19;-0.175;-0.18;-0.18;-0.19;-0.185;-0.195;-0.18;-0.175;-0.16;-0.18;-0.17;-0.155;-0.135;-0.13;-0.135;-0.14;-0.135;-0.11;-0.08;-0.07;-0.07;-0.065;-0.075;-0.04;-0.005;0.03;0.03;0.025;0.03;0.04;0.05;0.045;0.03;0.02;0;-0.01;-0.01;-0.02;-0.05;-0.075;-0.095;-0.1;-0.095;-0.09;-0.1;-0.105;-0.115;-0.1;-0.08;-0.09;-0.08;-0.09;-0.085;-0.07;-0.05;-0.035;-0.04;-0.05;-0.02;0.09;0.215;0.375;0.545;0.705;0.82;0.91;0.945;0.94;0.9;0.8;0.635;0.435;0.215;0.03;-0.055;-0.075;-0.085;-0.075;-0.085;-0.11;-0.115;-0.155;-0.175;-0.18;-0.195;-0.2;-0.2;-0.23;-0.26;-0.25;-0.245;-0.24;-0.25;-0.25;-0.265;-0.26;-0.245;-0.24;-0.26;-0.28;-0.28;-0.275;-0.265;-0.245;-0.26;-0.28;-0.28;-0.28;-0.26;-0.245;-0.245;-0.265;-0.265;-0.27;-0.24;-0.245;-0.25;-0.25;-0.265;-0.225;-0.215;-0.215;-0.21;-0.23;-0.235;-0.21;-0.215;-0.19;-0.185;-0.185;-0.195;-0.175;-0.17;-0.165;-0.145;-0.16;-0.155;-0.15;-0.115;-0.12;-0.095;-0.1;-0.095;-0.08;-0.045;-0.035;-0.03;-0.03;-0.02;0;0.015;0.04;0.045;0.045;0.025;0.065;0.09;0.1;0.1;0.105;0.11;0.13;0.145;0.145;0.15;0.145;0.125;0.14;0.14;0.145;0.13;0.11;0.09;0.08;0.085;0.07;0.065;0.03;0.015;0.01;0.015;0.005;-0.01;-0.045;-0.055;-0.07;-0.065;-0.075;-0.09;-0.115;-0.13;-0.13;-0.125;-0.135;-0.14;-0.155;-0.18;-0.17;-0.16;-0.16;-0.18;-0.2;-0.2;-0.2;-0.19;-0.2;-0.19;-0.21;-0.215;-0.21;-0.185;-0.18;-0.2;-0.215;-0.22;-0.21;-0.195;-0.185;-0.2;-0.225;-0.205;-0.19;-0.18;-0.18;-0.175;-0.18;-0.19;-0.175;-0.17;-0.15;-0.155;-0.165;-0.165;-0.155;-0.15;-0.135;-0.145;-0.16;-0.165;-0.145;-0.135;-0.145;-0.145;-0.165;-0.15;-0.145;-0.135;-0.13;-0.135;-0.16;-0.16;-0.155;-0.13;-0.135;-0.14;-0.155;-0.18;-0.16;-0.155;-0.175;-0.17;-0.175;-0.19;-0.175;-0.17;-0.165;-0.18;-0.2;-0.2;-0.205;-0.18;-0.185;-0.19;-0.21;-0.21;-0.21;-0.185;-0.185;-0.19;-0.21;-0.21;-0.225;-0.205;-0.2;-0.21;-0.225;-0.23;-0.215;-0.215;-0.205;-0.22;-0.235;-0.25;-0.24;-0.235;-0.215;-0.22;-0.23;-0.235;-0.23;-0.23;-0.215;-0.235;-0.245;-0.235;-0.23;-0.215;-0.22;-0.205;-0.225;-0.23;-0.235;-0.215;-0.205;-0.215;-0.25;-0.24;-0.23;-0.225;-0.21;-0.215;-0.23;-0.235;-0.225;-0.23;-0.215;-0.215;-0.23;-0.235;-0.225;-0.22;-0.205;-0.21;-0.225;-0.22;-0.22;-0.215;-0.2;-0.22;-0.23;-0.23;-0.215;-0.2;-0.195;-0.2;-0.2;-0.205;-0.2;-0.18;-0.18;-0.17;-0.185;-0.18;-0.17;-0.14;-0.12;-0.135;-0.12;-0.12;-0.105;-0.075;-0.06;-0.065;-0.045;-0.035;0;0.035;0.05;0.035;0.02;0.01;0;0.005;-0.005;-0.015;-0.05;-0.075;-0.08;-0.085;-0.095;-0.13;-0.155;-0.17;-0.165;-0.145;-0.155;-0.15;-0.15;-0.145;-0.145;-0.13;-0.115;-0.125;-0.12;-0.115;-0.105;-0.085;-0.035;0.04;0.14;0.305;0.54;0.755;0.895;0.98;0.985;0.975;0.925;0.825;0.62;0.33;0.05;-0.115;-0.15;-0.13;-0.09;-0.14;-0.155;-0.185;-0.185;-0.185;-0.19;-0.22;-0.25;-0.26;-0.27;-0.265;-0.27;-0.285;-0.295;-0.295;-0.305;-0.285;-0.29;-0.31;-0.32;-0.325;-0.305;-0.29;-0.3;-0.29;-0.31;-0.31;-0.315;-0.295;-0.275;-0.29;-0.305;-0.315;-0.305;-0.285;-0.265;-0.285;-0.29;-0.29;-0.28;-0.265;-0.255;-0.26;-0.275;-0.27;-0.265;-0.225;-0.22;-0.22;-0.235;-0.235;-0.195;-0.19;-0.175;-0.18;-0.17;-0.18;-0.15;-0.13;-0.11;-0.11;-0.11;-0.105;-0.09;-0.07;-0.045;-0.04;-0.045;-0.03;-0.005;0.005;0.01;0.04;0.04;0.045;0.065;0.085;0.09;0.105;0.08;0.095;0.105;0.115;0.11;0.125;0.09;0.09;0.105;0.12;0.11;0.085;0.05;0.035;0.045;0.045;0.03;0.015;-0.01;-0.04;-0.045;-0.05;-0.06;-0.085;-0.1;-0.125;-0.13;-0.135;-0.135;-0.17;-0.205;-0.21;-0.215;-0.2;-0.2;-0.21;-0.23;-0.24;-0.24;-0.245;-0.25;-0.255;-0.255;-0.27;-0.27;-0.26;-0.25;-0.255;-0.275;-0.29;-0.27;-0.26;-0.255;-0.255;-0.265;-0.28;-0.265;-0.255;-0.24;-0.245;-0.255;-0.28;-0.25;-0.24;-0.245;-0.235;-0.24;-0.26;-0.245;-0.23;-0.215;-0.22;-0.215;-0.23;-0.215;-0.2;-0.19;-0.2;-0.215;-0.22;-0.22;-0.205;-0.195;-0.205;-0.225;-0.225;-0.22;-0.21;-0.22;-0.21;-0.235;-0.23;-0.23;-0.22;-0.215;-0.235;-0.235;-0.25;-0.245;-0.23;-0.23;-0.245;-0.25;-0.26;-0.26;-0.245;-0.245;-0.245;-0.275;-0.28;-0.275;-0.26;-0.26;-0.27;-0.29;-0.3;-0.285;-0.28;-0.275;-0.285;-0.305;-0.31;-0.3;-0.3;-0.28;-0.29;-0.31;-0.315;-0.305;-0.305;-0.305;-0.305;-0.32;-0.315;-0.32;-0.305;-0.295;-0.3;-0.33;-0.315;-0.315;-0.305;-0.3;-0.3;-0.31;-0.32;-0.325;-0.315;-0.31;-0.305;-0.325;-0.325;-0.32;-0.325;-0.315;-0.315;-0.34;-0.335;-0.325;-0.32;-0.305;-0.315;-0.325;-0.325;-0.325;-0.325;-0.305;-0.325;-0.34;-0.35;-0.315;-0.315;-0.315;-0.315;-0.325;-0.33;-0.315;-0.305;-0.295;-0.315;-0.32;-0.33;-0.325;-0.3;-0.305;-0.31;-0.31;-0.32;-0.31;-0.3;-0.29;-0.295;-0.295;-0.3;-0.3;-0.29;-0.275;-0.28;-0.285;-0.285;-0.29;-0.255;-0.235;-0.235;-0.24;-0.25;-0.235;-0.21;-0.2;-0.19;-0.19;-0.185;-0.16;-0.135;-0.1;-0.085;-0.085;-0.1;-0.105;-0.11;-0.11;-0.115;-0.135;-0.16;-0.15;-0.16;-0.155;-0.17;-0.195;-0.215;-0.215;-0.215;-0.23;-0.22;-0.24;-0.225;-0.23;-0.2;-0.19;-0.19;-0.205;-0.195;-0.175;-0.17;-0.15;-0.15;-0.145;-0.115;-0.02;0.12;0.315;0.505;0.68;0.825;0.905;0.92;0.895;0.8;0.625;0.365;0.045;-0.145;-0.225;-0.19;-0.19;-0.215;-0.235;-0.235;-0.235;-0.255;-0.285;-0.31;-0.32;-0.295;-0.305;-0.31;-0.34;-0.35;-0.34;-0.33;-0.33;-0.345;-0.365;-0.37;-0.36;-0.355;-0.33;-0.35;-0.365;-0.365;-0.36;-0.345;-0.33;-0.34;-0.36;-0.355;-0.34;-0.33;-0.33;-0.34;-0.345;-0.355;-0.33;-0.315;-0.305;-0.315;-0.315;-0.31;-0.3;-0.28;-0.27;-0.27;-0.285;-0.275;-0.285;-0.255;-0.25;-0.235;-0.235;-0.245;-0.225;-0.205;-0.19;-0.19;-0.18;-0.19;-0.17;-0.135;-0.115;-0.12;-0.125;-0.11;-0.08;-0.06;-0.045;-0.035;-0.04;-0.03;-0.005;0.015;0.05;0.05;0.055;0.06;0.075;0.105;0.105;0.1;0.105;0.105;0.105;0.135;0.12;0.115;0.105;0.08;0.075;0.09;0.085;0.08;0.045;0.03;0;0;-0.005;-0.01;-0.05;-0.075;-0.08;-0.085;-0.095;-0.11;-0.14;-0.165;-0.155;-0.175;-0.165;-0.18;-0.21;-0.225;-0.225;-0.225;-0.21;-0.23;-0.245;-0.265;-0.26;-0.245;-0.25;-0.255;-0.27;-0.285;-0.275;-0.275;-0.26;-0.255;-0.265;-0.27;-0.27;-0.26;-0.255;-0.26;-0.26;-0.26;-0.26;-0.26;-0.225;-0.225;-0.24;-0.245;-0.235;-0.215;-0.205;-0.21;-0.225;-0.215;-0.195;-0.185;-0.18;-0.185;-0.2;-0.195;-0.185;-0.175;-0.17;-0.17;-0.18;-0.19;-0.195;-0.18;-0.17;-0.17;-0.19;-0.195;-0.19;-0.175;-0.17;-0.185;-0.2;-0.22;-0.205;-0.205;-0.19;-0.2;-0.225;-0.225;-0.23;-0.235;-0.215;-0.225;-0.24;-0.25;-0.245;-0.24;-0.23;-0.24;-0.255;-0.265;-0.26;-0.25;-0.24;-0.25;-0.265;-0.265;-0.27;-0.245;-0.25;-0.265;-0.265;-0.28;-0.27;-0.265;-0.265;-0.27;-0.275;-0.295;-0.28;-0.27;-0.265;-0.27;-0.29;-0.3;-0.295;-0.275;-0.265;-0.28;-0.29;-0.3;-0.305;-0.29;-0.275;-0.295;-0.295;-0.3;-0.295;-0.28;-0.28;-0.29;-0.295;-0.31;-0.295;-0.29;-0.28;-0.29;-0.295;-0.295;-0.29;-0.3;-0.29;-0.28;-0.31;-0.3;-0.29;-0.29;-0.295;-0.285;-0.295;-0.305;-0.31;-0.29;-0.285;-0.285;-0.305;-0.305;-0.305;-0.28;-0.28;-0.28;-0.3;-0.31;-0.315;-0.305;-0.275;-0.285;-0.3;-0.305;-0.295;-0.275;-0.27;-0.275;-0.29;-0.295;-0.285;-0.27;-0.265;-0.26;-0.29;-0.28;-0.28;-0.27;-0.26;-0.255;-0.27;-0.28;-0.27;-0.26;-0.25;-0.25;-0.265;-0.25;-0.24;-0.215;-0.21;-0.205;-0.21;-0.205;-0.185;-0.16;-0.15;-0.145;-0.16;-0.15;-0.125;-0.095;-0.06;-0.05;-0.075;-0.065;-0.085;-0.08;-0.095;-0.095;-0.115;-0.13;-0.125;-0.125;-0.14;-0.155;-0.185;-0.205;-0.205;-0.205;-0.185;-0.19;-0.205;-0.205;-0.2;-0.185;-0.175;-0.175;-0.185;-0.18;-0.165;-0.15;-0.135;-0.13;-0.135;-0.115;-0.045;0.06;0.215;0.385;0.56;0.72;0.825;0.89;0.88;0.85;0.745;0.58;0.36;0.115;-0.07;-0.155;-0.15;-0.145;-0.17;-0.175;-0.185;-0.215;-0.235;-0.255;-0.265;-0.285;-0.26;-0.285;-0.32;-0.32;-0.33;-0.325;-0.315;-0.32;-0.345;-0.35;-0.345;-0.325;-0.325;-0.335;-0.35;-0.355;-0.355;-0.345;-0.335;-0.34;-0.365;-0.36;-0.35;-0.34;-0.34;-0.335;-0.345;-0.35;-0.34;-0.32;-0.31;-0.31;-0.32;-0.34;-0.325;-0.305;-0.29;-0.305;-0.31;-0.305;-0.29;-0.27;-0.255;-0.26;-0.255;-0.265;-0.25;-0.24;-0.21;-0.225;-0.215;-0.215;-0.215;-0.185;-0.165;-0.15;-0.165;-0.155;-0.14;-0.11;-0.085;-0.08;-0.09;-0.085;-0.06;-0.04;-0.02;-0.005;-0.02;-0.01;0.005;0.035;0.04;0.065;0.055;0.04;0.05;0.07;0.095;0.09;0.07;0.07;0.07;0.08;0.08;0.075;0.055;0.045;0.045;0.05;0.035;0.01;0.005;-0.04;-0.035;-0.04;-0.04;-0.075;-0.095;-0.12;-0.12;-0.115;-0.14;-0.145;-0.18;-0.19;-0.19;-0.2;-0.19;-0.22;-0.245;-0.26;-0.245;-0.255;-0.245;-0.27;-0.285;-0.27;-0.265;-0.27;-0.26;-0.275;-0.285;-0.3;-0.295;-0.285;-0.28;-0.275;-0.3;-0.305;-0.3;-0.285;-0.27;-0.275;-0.29;-0.285;-0.275;-0.26;-0.25;-0.26;-0.27;-0.28;-0.27;-0.25;-0.25;-0.27;-0.275;-0.265;-0.265;-0.245;-0.24;-0.245;-0.235;-0.255;-0.25;-0.235;-0.215;-0.22;-0.24;-0.245;-0.225;-0.225;-0.225;-0.22;-0.23;-0.24;-0.24;-0.21;-0.2;-0.215;-0.225;-0.24;-0.235;-0.22;-0.22;-0.22;-0.235;-0.255;-0.255;-0.24;-0.235;-0.235;-0.26;-0.27;-0.265;-0.26;-0.255;-0.26;-0.265;-0.28;-0.27;-0.26;-0.255;-0.265;-0.29;-0.295;-0.29;-0.28;-0.27;-0.29;-0.305;-0.305;-0.3;-0.285;-0.28;-0.29;-0.3;-0.31;-0.325;-0.3;-0.285;-0.29;-0.31;-0.315;-0.31;-0.29;-0.3;-0.305;-0.315;-0.325;-0.315;-0.31;-0.305;-0.315;-0.325;-0.33;-0.325;-0.325;-0.31;-0.315;-0.34;-0.34;-0.335;-0.335;-0.315;-0.31;-0.34;-0.35;-0.335;-0.32;-0.32;-0.33;-0.34;-0.355;-0.345;-0.32;-0.325;-0.325;-0.345;-0.37;-0.355;-0.35;-0.315;-0.33;-0.335;-0.365;-0.35;-0.345;-0.33;-0.345;-0.35;-0.365;-0.365;-0.34;-0.34;-0.35;-0.36;-0.37;-0.37;-0.36;-0.35;-0.36;-0.37;-0.385;-0.37;-0.355;-0.355;-0.365;-0.385;-0.395;-0.39;-0.365;-0.385;-0.38;-0.39;-0.405;-0.395;-0.395;-0.39;-0.41;-0.415;-0.415;-0.43;-0.425;-0.42;-0.42
4;0;-0.21;-0.215;-0.2;-0.2;-0.175;-0.17;-0.175;-0.17;-0.16;-0.145;-0.12;-0.125;-0.12;-0.12;-0.115;-0.11;-0.075;-0.065;-0.075;-0.08;-0.07;-0.055;-0.05;-0.035;-0.045;-0.05;-0.05;-0.03;-0.025;-0.035;-0.055;-0.055;-0.065;-0.065;-0.07;-0.075;-0.09;-0.11;-0.13;-0.115;-0.105;-0.125;-0.14;-0.17;-0.165;-0.18;-0.17;-0.175;-0.185;-0.21;-0.2;-0.195;-0.2;-0.215;-0.225;-0.23;-0.235;-0.225;-0.215;-0.24;-0.235;-0.255;-0.275;-0.245;-0.24;-0.245;-0.265;-0.27;-0.255;-0.24;-0.23;-0.24;-0.245;-0.245;-0.225;-0.225;-0.21;-0.23;-0.235;-0.245;-0.225;-0.21;-0.2;-0.215;-0.21;-0.225;-0.205;-0.185;-0.17;-0.175;-0.185;-0.205;-0.195;-0.175;-0.165;-0.185;-0.185;-0.195;-0.2;-0.17;-0.15;-0.15;-0.165;-0.185;-0.17;-0.16;-0.15;-0.16;-0.16;-0.17;-0.175;-0.145;-0.13;-0.14;-0.15;-0.18;-0.175;-0.16;-0.15;-0.16;-0.165;-0.165;-0.165;-0.17;-0.15;-0.18;-0.165;-0.195;-0.195;-0.17;-0.16;-0.165;-0.185;-0.185;-0.19;-0.175;-0.17;-0.185;-0.19;-0.175;-0.185;-0.185;-0.155;-0.17;-0.18;-0.185;-0.185;-0.17;-0.16;-0.175;-0.205;-0.2;-0.185;-0.175;-0.16;-0.17;-0.185;-0.195;-0.195;-0.19;-0.18;-0.175;-0.18;-0.185;-0.175;-0.185;-0.145;-0.155;-0.155;-0.18;-0.18;-0.16;-0.14;-0.14;-0.155;-0.165;-0.16;-0.15;-0.13;-0.13;-0.14;-0.15;-0.155;-0.14;-0.11;-0.115;-0.12;-0.12;-0.13;-0.105;-0.08;-0.07;-0.075;-0.095;-0.065;-0.035;-0.02;-0.015;-0.01;0.01;0.035;0.06;0.095;0.08;0.08;0.075;0.075;0.08;0.1;0.08;0.045;0.02;0.01;0;-0.005;-0.015;-0.05;-0.045;-0.07;-0.065;-0.065;-0.07;-0.09;-0.1;-0.085;-0.075;-0.06;-0.05;-0.07;-0.07;-0.075;-0.06;-0.04;-0.045;-0.045;-0.035;0.005;0.115;0.245;0.43;0.6;0.78;0.925;1.015;1.07;1.07;1.025;0.925;0.785;0.575;0.3;0.055;-0.115;-0.155;-0.13;-0.11;-0.105;-0.125;-0.15;-0.16;-0.165;-0.165;-0.155;-0.18;-0.195;-0.22;-0.23;-0.23;-0.235;-0.225;-0.235;-0.25;-0.255;-0.255;-0.24;-0.24;-0.255;-0.26;-0.265;-0.26;-0.23;-0.245;-0.26;-0.265;-0.26;-0.255;-0.245;-0.235;-0.25;-0.26;-0.255;-0.24;-0.23;-0.225;-0.24;-0.265;-0.255;-0.23;-0.225;-0.22;-0.225;-0.24;-0.23;-0.2;-0.185;-0.195;-0.2;-0.21;-0.195;-0.185;-0.165;-0.16;-0.17;-0.18;-0.165;-0.155;-0.125;-0.135;-0.14;-0.13;-0.13;-0.105;-0.085;-0.08;-0.1;-0.09;-0.075;-0.055;-0.035;-0.03;-0.025;-0.03;-0.025;-0.01;0.02;0.02;0.03;0.02;0.05;0.055;0.075;0.065;0.055;0.05;0.07;0.07;0.08;0.09;0.06;0.055;0.06;0.05;0.06;0.055;0.04;0.02;0.005;0.015;0.01;-0.015;-0.02;-0.04;-0.05;-0.055;-0.035;-0.06;-0.065;-0.105;-0.1;-0.095;-0.085;-0.1;-0.12;-0.13;-0.125;-0.125;-0.115;-0.13;-0.155;-0.165;-0.16;-0.13;-0.14;-0.15;-0.165;-0.17;-0.155;-0.14;-0.135;-0.145;-0.15;-0.16;-0.165;-0.15;-0.14;-0.145;-0.145;-0.14;-0.14;-0.12;-0.105;-0.12;-0.12;-0.12;-0.12;-0.1;-0.095;-0.08;-0.085;-0.11;-0.08;-0.08;-0.06;-0.07;-0.065;-0.07;-0.07;-0.07;-0.05;-0.05;-0.065;-0.065;-0.06;-0.06;-0.035;-0.05;-0.06;-0.075;-0.065;-0.05;-0.04;-0.055;-0.06;-0.075;-0.065;-0.065;-0.05;-0.06;-0.085;-0.085;-0.095;-0.08;-0.075;-0.075;-0.095;-0.105;-0.105;-0.085;-0.095;-0.1;-0.11;-0.12;-0.125;-0.105;-0.095;-0.105;-0.12;-0.125;-0.115;-0.105;-0.09;-0.105;-0.105;-0.125;-0.12;-0.115;-0.11;-0.115;-0.135;-0.14;-0.145;-0.135;-0.125;-0.115;-0.125;-0.145;-0.15;-0.13;-0.115;-0.11;-0.12;-0.125;-0.14;-0.13;-0.115;-0.105;-0.14;-0.14;-0.12;-0.105;-0.1;-0.105;-0.105;-0.115;-0.105;-0.095;-0.07;-0.07;-0.07;-0.07;-0.05;-0.035;-0.015;-0.005;-0.015;-0.015;0.01;0.025;0.06;0.075;0.085;0.075;0.095;0.1;0.1;0.095;0.085;0.08;0.06;0.045;0.055;0.035;-0.01;-0.035;-0.025;-0.025;-0.045;-0.055;-0.09;-0.105;-0.09;-0.095;-0.085;-0.07;-0.095;-0.105;-0.105;-0.075;-0.04;-0.04;-0.06;-0.065;-0.065;-0.07;-0.04;-0.03;0.015;0.095;0.23;0.42;0.635;0.84;0.97;1.07;1.125;1.145;1.135;1.075;0.945;0.76;0.535;0.295;0.075;-0.045;-0.06;-0.08;-0.07;-0.085;-0.07;-0.085;-0.105;-0.125;-0.145;-0.145;-0.145;-0.17;-0.185;-0.2;-0.215;-0.205;-0.185;-0.2;-0.21;-0.235;-0.225;-0.225;-0.205;-0.21;-0.225;-0.23;-0.225;-0.225;-0.22;-0.22;-0.23;-0.245;-0.235;-0.225;-0.215;-0.205;-0.225;-0.23;-0.22;-0.215;-0.205;-0.21;-0.215;-0.23;-0.245;-0.215;-0.195;-0.19;-0.205;-0.22;-0.205;-0.195;-0.175;-0.165;-0.185;-0.195;-0.18;-0.165;-0.145;-0.13;-0.145;-0.165;-0.15;-0.13;-0.105;-0.11;-0.115;-0.115;-0.1;-0.09;-0.06;-0.06;-0.06;-0.075;-0.05;-0.03;-0.02;-0.015;-0.01;-0.015;0;0.02;0.03;0.03;0.025;0.02;0.025;0.045;0.065;0.05;0.05;0.04;0.045;0.06;0.065;0.06;0.04;0.025;0.015;0.015;0.01;0.01;-0.02;-0.025;-0.035;-0.025;-0.03;-0.055;-0.065;-0.09;-0.11;-0.095;-0.095;-0.11;-0.125;-0.13;-0.13;-0.13;-0.12;-0.135;-0.155;-0.155;-0.165;-0.15;-0.14;-0.155;-0.165;-0.15;-0.16;-0.155;-0.13;-0.145;-0.145;-0.16;-0.16;-0.15;-0.125;-0.12;-0.15;-0.16;-0.15;-0.12;-0.11;-0.12;-0.12;-0.135;-0.12;-0.13;-0.115;-0.105;-0.105;-0.12;-0.12;-0.13;-0.105;-0.105;-0.1;-0.1;-0.095;-0.085;-0.075;-0.065;-0.08;-0.08;-0.105;-0.075;-0.065;-0.07;-0.09;-0.1;-0.09;-0.06;-0.055;-0.05;-0.065;-0.08;-0.085;-0.065;-0.075;-0.065;-0.075;-0.1;-0.085;-0.085;-0.06;-0.08;-0.1;-0.095;-0.105;-0.1;-0.095;-0.095;-0.095;-0.115;-0.1;-0.1;-0.085;-0.085;-0.115;-0.13;-0.125;-0.125;-0.1;-0.105;-0.125;-0.13;-0.13;-0.11;-0.1;-0.105;-0.11;-0.13;-0.135;-0.12;-0.11;-0.12;-0.12;-0.14;-0.135;-0.12;-0.115;-0.125;-0.125;-0.135;-0.125;-0.13;-0.11;-0.11;-0.12;-0.12;-0.115;-0.105;-0.09;-0.09;-0.115;-0.135;-0.115;-0.1;-0.08;-0.09;-0.08;-0.075;-0.065;-0.05;-0.02;-0.015;-0.02;-0.005;-0.015;0.025;0.055;0.085;0.08;0.09;0.095;0.115;0.13;0.125;0.105;0.075;0.085;0.075;0.065;0.04;-0.005;-0.005;-0.02;-0.02;-0.02;-0.035;-0.045;-0.07;-0.06;-0.045;-0.025;-0.035;-0.045;-0.07;-0.055;-0.035;-0.015;-0.015;-0.015;-0.02;-0.025;-0.01;0.04;0.1;0.19;0.345;0.55;0.76;0.945;1.045;1.07;1.075;1.075;1.02;0.915;0.72;0.455;0.18;0.04;0.02;0.04;0.04;0.015;-0.01;-0.02;-0.015;-0.005;-0.025;-0.035;-0.075;-0.085;-0.085;-0.08;-0.115;-0.11;-0.135;-0.135;-0.135;-0.135;-0.13;-0.155;-0.15;-0.155;-0.15;-0.15;-0.15;-0.17;-0.175;-0.17;-0.145;-0.14;-0.15;-0.16;-0.17;-0.16;-0.165;-0.14;-0.165;-0.155;-0.175;-0.175;-0.15;-0.12;-0.13;-0.135;-0.155;-0.16;-0.14;-0.115;-0.115;-0.125;-0.13;-0.125;-0.105;-0.1;-0.095;-0.095;-0.095;-0.08;-0.06;-0.05;-0.05;-0.065;-0.08;-0.055;-0.05;-0.025;-0.025;-0.025;-0.035;-0.02;-0.005;0.005;0.02;0;-0.01;0.015;0.04;0.06;0.065;0.065;0.06;0.065;0.085;0.1;0.1;0.095;0.095;0.085;0.115;0.13;0.125;0.125;0.1;0.095;0.1;0.12;0.115;0.105;0.09;0.07;0.08;0.1;0.09;0.06;0.05;0.05;0.045;0.05;0.04;0.02;0.005;-0.015;0;0.015;0.01;-0.01;-0.03;-0.025;-0.025;-0.01;-0.015;-0.025;-0.04;-0.025;-0.005;-0.005;-0.025;-0.04;-0.05;-0.04;-0.025;-0.01;-0.02;-0.03;-0.035;-0.03;-0.015;-0.005;0.01;-0.005;-0.015;-0.025;-0.005;0.015;0.005;-0.005;-0.01;-0.01;0.01;0.025;0.025;0.005;-0.025;-0.005;0.01;0.03;0.02;0.02;-0.01;-0.01;0.01;0.025;0.035;0.025;-0.005;0.015;0.02;0.045;0.035;0.025;0.005;0;-0.005;0.025;0.02;0.015;0.005;-0.005;0.005;0.02;0.015;0;-0.01;-0.005;0.005;0.015;0;-0.015;-0.02;-0.01;-0.005;-0.015;0;-0.02;-0.025;-0.035;-0.025;-0.01;-0.015;-0.02;-0.04;-0.04;-0.03;-0.015;-0.02;-0.03;-0.045;-0.035;-0.025;-0.01;-0.015;-0.015;-0.035;-0.035;-0.02;-0.01;-0.01;-0.005;-0.025;-0.025;-0.015;0.01;-0.005;-0.005;-0.015;-0.01;0.01;0.04;0.04;0.045;0.04;0.055;0.075;0.105;0.115;0.11;0.11;0.155;0.185;0.21;0.21;0.2;0.19;0.185;0.205;0.19;0.17;0.135;0.11;0.09;0.08;0.07;0.055;0.015;-0.01;-0.005;-0.015;0.01;-0.01;-0.025;-0.05;-0.025;-0.025;0;-0.005;-0.005;-0.025;-0.015;-0.005;0.005;0.01;0.015;0.05;0.11;0.235;0.39;0.565;0.745;0.875;0.955;1;0.995;0.915;0.78;0.585;0.365;0.155;0.03;-0.04;-0.06;-0.065;-0.07;-0.07;-0.085;-0.09;-0.11;-0.13;-0.145;-0.15;-0.135;-0.145;-0.18;-0.2;-0.205;-0.195;-0.175;-0.19;-0.2;-0.205;-0.22;-0.2;-0.195;-0.215;-0.21;-0.23;-0.22;-0.21;-0.195;-0.205;-0.21;-0.22;-0.225;-0.21;-0.19;-0.205;-0.215;-0.23;-0.22;-0.2;-0.185;-0.185;-0.195;-0.195;-0.185;-0.17;-0.16;-0.155;-0.15;-0.165;-0.16;-0.13;-0.11;-0.11;-0.12;-0.13;-0.115;-0.095;-0.085;-0.07;-0.09;-0.095;-0.095;-0.075;-0.045;-0.05;-0.05;-0.055;-0.05;-0.02;0;-0.005;0.005;-0.015;-0.005;0.01;0.035;0.025;0.02;0.015;0.03;0.055;0.07;0.06;0.065;0.035;0.045;0.05;0.065;0.075;0.055;0.045;0.05;0.055;0.06;0.06;0.055;0.03;0.035;0.015;0.02;0.015;-0.005;-0.025;-0.01;-0.005;0.01;-0.015;-0.04;-0.06;-0.06;-0.075;-0.03;-0.045;-0.055;-0.065;-0.065;-0.07;-0.045;-0.05;-0.065;-0.07;-0.07;-0.06;-0.04;-0.045;-0.07;-0.065;-0.07;-0.05;-0.025;-0.04;-0.045;-0.05;-0.045;-0.03;-0.025;-0.02;-0.03;-0.03;-0.02;-0.015;-0.01;-0.005;-0.015;-0.025;-0.025;-0.005;0.01;0.015;0.005;0;0.005;0.015;0.015;0.015;-0.015;-0.01;-0.01;0;0.015;0.01;-0.01;-0.015;-0.025;-0.01;0;-0.005;-0.03;-0.04;-0.045;-0.03;-0.02;-0.035;-0.04;-0.055;-0.055;-0.045;-0.045;-0.04;-0.075;-0.08;-0.075;-0.065;-0.05;-0.055;-0.07;-0.085;-0.09;-0.075;-0.055;-0.065;-0.08;-0.095;-0.085;-0.085;-0.075;-0.07;-0.07;-0.085;-0.085;-0.07;-0.05;-0.05;-0.045;-0.06;-0.06;-0.055;-0.035;-0.04;-0.05;-0.06;-0.035;0;0.025;0.015;0.035;0.05;0.075;0.095;0.115;0.115;0.105;0.105;0.11;0.105;0.105;0.085;0.05;0.01;0;-0.01;-0.015;-0.025;-0.06;-0.075;-0.075;-0.065;-0.05;-0.05;-0.07;-0.095;-0.08;-0.06;-0.055;-0.035;-0.04;-0.07;-0.04;-0.025;-0.01;0.04;0.12;0.255;0.445;0.68;0.865;0.97;1;0.99;0.935;0.85;0.695;0.435;0.16;-0.04;-0.085;-0.07;-0.045;-0.065;-0.1;-0.13;-0.135;-0.13;-0.135;-0.15;-0.165;-0.2;-0.19;-0.2;-0.18;-0.195;-0.21;-0.22;-0.22;-0.23;-0.21;-0.21;-0.215;-0.235;-0.235;-0.225;-0.215;-0.215;-0.225;-0.235;-0.24;-0.225;-0.22;-0.21;-0.23;-0.235;-0.25;-0.225;-0.195;-0.195;-0.21;-0.21;-0.205;-0.19;-0.175;-0.17;-0.18;-0.185;-0.175;-0.155;-0.145;-0.14;-0.145;-0.16;-0.14;-0.12;-0.095;-0.11;-0.12;-0.105;-0.095;-0.085;-0.065;-0.06;-0.06;-0.06;-0.07;-0.05;-0.02;-0.035;-0.03;-0.02;-0.02;-0.005;0.02;0.03;0.03;0.01;0.035;0.055;0.07;0.08;0.06;0.05;0.065;0.07;0.08;0.07;0.065;0.055;0.035;0.055;0.065;0.06;0.025;0.01;0;0.01;0.015;0;-0.01;-0.025;-0.03;-0.03;-0.03;-0.035;-0.06;-0.09;-0.09;-0.095;-0.08;-0.09;-0.115;-0.13;-0.145;-0.125;-0.125;-0.125;-0.145;-0.165;-0.165;-0.15;-0.13;-0.135;-0.155;-0.17;-0.16;-0.14;-0.13;-0.125;-0.14;-0.145;-0.14;-0.125;-0.11;-0.115;-0.125;-0.13;-0.125;-0.11;-0.11;-0.11;-0.105;-0.125;-0.14;-0.11;-0.085;-0.09;-0.095;-0.1;-0.115;-0.095;-0.075;-0.085;-0.095;-0.09;-0.1;-0.095;-0.07;-0.07;-0.095;-0.1;-0.09;-0.08;-0.075;-0.075;-0.095;-0.095;-0.1;-0.09;-0.075;-0.09;-0.095;-0.11;-0.125;-0.11;-0.09;-0.09;-0.115;-0.13;-0.125;-0.115;-0.13;-0.125;-0.15;-0.15;-0.15;-0.145;-0.125;-0.135;-0.15;-0.165;-0.17;-0.16;-0.13;-0.135;-0.15;-0.175;-0.175;-0.165;-0.145;-0.14;-0.155;-0.165;-0.145;-0.14;-0.11;-0.115;-0.13;-0.135;-0.12;-0.1;-0.09;-0.07;-0.07;-0.075;-0.06;-0.04;-0.005;0;0.025;0.02;0.025;0.045;0.06;0.045;0.04;0.025;0.01;0.005;-0.015;-0.05;-0.065;-0.09;-0.115;-0.115;-0.11;-0.125;-0.145;-0.165;-0.15;-0.145;-0.14;-0.155;-0.15;-0.165;-0.15;-0.125;-0.115;-0.12;-0.13;-0.15;-0.145;-0.135;-0.095;-0.045;0.05;0.2;0.415;0.64;0.835;0.94;0.985;0.965;0.915;0.805;0.62;0.335;0.06;-0.115;-0.145;-0.14;-0.13;-0.13;-0.17;-0.19;-0.185;-0.2;-0.205;-0.225;-0.25;-0.27;-0.27;-0.265;-0.255;-0.26;-0.29;-0.29;-0.295;-0.28;-0.27;-0.275;-0.29;-0.315;-0.3;-0.29;-0.28;-0.275;-0.31;-0.295;-0.295;-0.28;-0.27;-0.28;-0.29;-0.285;-0.29;-0.265;-0.255;-0.255;-0.265;-0.28;-0.26;-0.24;-0.235;-0.235;-0.22;-0.24;-0.24;-0.22;-0.205;-0.2;-0.21;-0.22;-0.205;-0.175;-0.17;-0.16;-0.16;-0.175;-0.16;-0.135;-0.12;-0.115;-0.125;-0.13;-0.11;-0.09;-0.075;-0.07;-0.065;-0.07;-0.06;-0.025;-0.02;-0.005;-0.02;-0.02;-0.02;-0.005;0.025;0.02;0.005;0;0.005;0;0.03;0.03;0.005;-0.015;-0.03;-0.03;-0.005;-0.025;-0.015;-0.05;-0.055;-0.06;-0.05;-0.085;-0.095;-0.115;-0.115;-0.115;-0.115;-0.135;-0.15;-0.165;-0.165;-0.17;-0.155;-0.17;-0.19;-0.205;-0.2;-0.19;-0.18;-0.2;-0.21;-0.22;-0.21;-0.205;-0.19;-0.18;-0.185;-0.2;-0.19;-0.175;-0.165;-0.175;-0.18;-0.18;-0.205;-0.18;-0.16;-0.16;-0.155;-0.17;-0.175;-0.155;-0.125;-0.145;-0.145;-0.155;-0.15;-0.13;-0.115;-0.115;-0.115;-0.13;-0.13;-0.12;-0.09;-0.08;-0.115;-0.11;-0.11;-0.095;-0.08;-0.075;-0.1;-0.115;-0.11;-0.1;-0.095;-0.11;-0.13;-0.125;-0.135;-0.115;-0.1;-0.115;-0.125;-0.12;-0.115;-0.115;-0.095;-0.11;-0.12;-0.135;-0.14;-0.115;-0.105;-0.115;-0.125;-0.145;-0.15;-0.15;-0.115;-0.13;-0.155;-0.16;-0.155;-0.155;-0.145;-0.14;-0.155;-0.16;-0.16;-0.145;-0.145;-0.135;-0.16;-0.165;-0.155;-0.15;-0.14;-0.145;-0.15;-0.155;-0.145;-0.14;-0.125;-0.13;-0.145;-0.15;-0.15;-0.125;-0.115;-0.11;-0.12;-0.125;-0.11;-0.085;-0.055;-0.055;-0.055;-0.06;-0.04;-0.02;0.025;0.03;0.04;0.055;0.055;0.075;0.09;0.09;0.08;0.065;0.055;0.05;0.035;0.005;-0.03;-0.055;-0.07;-0.065;-0.07;-0.09;-0.115;-0.115;-0.125;-0.11;-0.095;-0.105;-0.11;-0.15;-0.135;-0.125;-0.105;-0.11;-0.1;-0.1;-0.105;-0.095;-0.09;-0.075;-0.06;0.02;0.175;0.365;0.605;0.815;0.97;1.03;1.065;1.075;1.02;0.92;0.695;0.4;0.115;-0.055;-0.075;-0.06;-0.07;-0.11;-0.125;-0.135;-0.12;-0.14;-0.155;-0.19;-0.2;-0.205;-0.195;-0.21;-0.22;-0.245;-0.245;-0.245;-0.22;-0.235;-0.255;-0.275;-0.26;-0.25;-0.24;-0.26;-0.255;-0.28;-0.265;-0.255;-0.25;-0.255;-0.255;-0.265;-0.255;-0.25;-0.25;-0.24;-0.255;-0.265;-0.25;-0.25;-0.235;-0.235;-0.23;-0.25;-0.225;-0.21;-0.205;-0.215;-0.225;-0.22;-0.21;-0.205;-0.175;-0.175;-0.175;-0.19;-0.17;-0.16;-0.14;-0.135;-0.145;-0.145;-0.135;-0.11;-0.095;-0.11;-0.115;-0.095;-0.09;-0.06;-0.04;-0.04;-0.05;-0.055;-0.05;-0.03;-0.005;0.01;0.005;0.005;0.015;0.025;0.045;0.04;0.035;0.025;0.045;0.03;0.06;0.045;0.025;0.015;0.01;0.01;0.02;-0.005;-0.03;-0.05;-0.055;-0.065;-0.065;-0.07;-0.1;-0.13;-0.12;-0.12;-0.125;-0.14;-0.155;-0.175;-0.17;-0.175;-0.17;-0.185;-0.21;-0.21;-0.235;-0.22;-0.22;-0.22;-0.23;-0.26;-0.25;-0.255;-0.235;-0.235;-0.25;-0.26;-0.25;-0.26;-0.235;-0.225;-0.245;-0.255;-0.245;-0.25;-0.22;-0.21;-0.22;-0.235;-0.24;-0.235;-0.215;-0.215;-0.22;-0.22;-0.21;-0.21;-0.175;-0.165;-0.185;-0.195;-0.185;-0.185;-0.16;-0.175;-0.195;-0.175;-0.19;-0.18;-0.16;-0.16;-0.175;-0.175;-0.17;-0.15;-0.15;-0.17;-0.17;-0.175;-0.19;-0.17;-0.16;-0.165;-0.175;-0.19;-0.2;-0.18;-0.175;-0.19
5;0;-0.955;-0.945;-0.945;-0.925;-0.9;-0.91;-0.9;-0.91;-0.915;-0.91;-0.92;-0.92;-0.93;-0.94;-0.915;-0.91;-0.905;-0.905;-0.9;-0.9;-0.895;-0.9;-0.925;-0.945;-0.935;-0.925;-0.925;-0.91;-0.905;-0.91;-0.885;-0.875;-0.885;-0.9;-0.89;-0.895;-0.91;-0.905;-0.905;-0.92;-0.915;-0.895;-0.885;-0.88;-0.89;-0.89;-0.895;-0.905;-0.905;-0.89;-0.895;-0.895;-0.88;-0.89;-0.875;-0.87;-0.875;-0.875;-0.885;-0.89;-0.91;-0.895;-0.895;-0.89;-0.87;-0.87;-0.85;-0.84;-0.855;-0.845;-0.865;-0.88;-0.885;-0.895;-0.905;-0.89;-0.895;-0.895;-0.89;-0.875;-0.875;-0.875;-0.865;-0.895;-0.885;-0.9;-0.89;-0.895;-0.875;-0.87;-0.865;-0.865;-0.855;-0.87;-0.88;-0.875;-0.885;-0.89;-0.895;-0.88;-0.865;-0.86;-0.85;-0.86;-0.855;-0.855;-0.86;-0.855;-0.865;-0.86;-0.855;-0.85;-0.85;-0.845;-0.835;-0.83;-0.835;-0.83;-0.845;-0.845;-0.84;-0.835;-0.805;-0.775;-0.75;-0.71;-0.72;-0.715;-0.7;-0.685;-0.655;-0.65;-0.62;-0.585;-0.54;-0.51;-0.515;-0.5;-0.5;-0.525;-0.52;-0.515;-0.525;-0.535;-0.52;-0.555;-0.59;-0.655;-0.685;-0.715;-0.755;-0.795;-0.835;-0.84;-0.855;-0.865;-0.885;-0.88;-0.885;-0.885;-0.87;-0.86;-0.86;-0.85;-0.85;-0.86;-0.86;-0.88;-0.88;-0.9;-0.9;-0.895;-0.895;-0.895;-0.88;-0.89;-0.905;-0.945;-0.95;-0.9;-0.8;-0.635;-0.37;-0.04;0.33;0.725;1.045;1.27;1.37;1.34;1.165;0.835;0.345;-0.215;-0.7;-0.98;-1.03;-0.95;-0.785;-0.665;-0.61;-0.625;-0.695;-0.76;-0.82;-0.875;-0.89;-0.89;-0.885;-0.87;-0.86;-0.86;-0.88;-0.88;-0.905;-0.91;-0.92;-0.925;-0.93;-0.925;-0.915;-0.92;-0.915;-0.92;-0.915;-0.93;-0.92;-0.935;-0.95;-0.955;-0.94;-0.925;-0.925;-0.925;-0.925;-0.935;-0.915;-0.915;-0.92;-0.945;-0.94;-0.94;-0.945;-0.94;-0.935;-0.925;-0.925;-0.91;-0.915;-0.915;-0.925;-0.92;-0.93;-0.925;-0.925;-0.915;-0.9;-0.91;-0.89;-0.865;-0.86;-0.865;-0.865;-0.885;-0.875;-0.895;-0.87;-0.86;-0.84;-0.835;-0.81;-0.8;-0.795;-0.78;-0.775;-0.78;-0.775;-0.785;-0.78;-0.755;-0.735;-0.715;-0.7;-0.67;-0.655;-0.66;-0.665;-0.645;-0.645;-0.645;-0.64;-0.62;-0.58;-0.57;-0.545;-0.54;-0.53;-0.515;-0.53;-0.515;-0.515;-0.51;-0.51;-0.495;-0.475;-0.465;-0.455;-0.435;-0.41;-0.425;-0.435;-0.43;-0.465;-0.495;-0.49;-0.5;-0.505;-0.5;-0.5;-0.53;-0.54;-0.575;-0.59;-0.615;-0.65;-0.67;-0.695;-0.69;-0.69;-0.695;-0.705;-0.71;-0.715;-0.725;-0.755;-0.765;-0.77;-0.795;-0.785;-0.775;-0.78;-0.775;-0.765;-0.755;-0.77;-0.775;-0.765;-0.78;-0.775;-0.79;-0.785;-0.77;-0.76;-0.75;-0.74;-0.735;-0.725;-0.74;-0.75;-0.755;-0.765;-0.76;-0.765;-0.765;-0.745;-0.735;-0.73;-0.74;-0.745;-0.765;-0.755;-0.77;-0.775;-0.775;-0.785;-0.77;-0.765;-0.755;-0.75;-0.745;-0.76;-0.765;-0.775;-0.78;-0.79;-0.82;-0.825;-0.795;-0.805;-0.805;-0.79;-0.795;-0.795;-0.805;-0.83;-0.83;-0.845;-0.845;-0.835;-0.85;-0.84;-0.85;-0.835;-0.825;-0.825;-0.845;-0.845;-0.85;-0.875;-0.875;-0.885;-0.875;-0.875;-0.865;-0.865;-0.86;-0.865;-0.85;-0.875;-0.895;-0.885;-0.89;-0.885;-0.895;-0.885;-0.885;-0.865;-0.855;-0.87;-0.875;-0.885;-0.88;-0.89;-0.9;-0.915;-0.9;-0.89;-0.885;-0.885;-0.875;-0.865;-0.865;-0.9;-0.905;-0.9;-0.92;-0.91;-0.915;-0.9;-0.89;-0.88;-0.865;-0.85;-0.86;-0.87;-0.86;-0.86;-0.85;-0.825;-0.805;-0.78;-0.755;-0.735;-0.715;-0.715;-0.7;-0.69;-0.675;-0.65;-0.625;-0.595;-0.56;-0.555;-0.545;-0.555;-0.545;-0.555;-0.565;-0.58;-0.59;-0.62;-0.67;-0.72;-0.78;-0.825;-0.845;-0.88;-0.875;-0.9;-0.88;-0.885;-0.895;-0.91;-0.925;-0.915;-0.925;-0.91;-0.925;-0.925;-0.915;-0.915;-0.92;-0.915;-0.93;-0.93;-0.935;-0.925;-0.925;-0.905;-0.92;-0.9;-0.905;-0.91;-0.94;-0.95;-0.99;-0.995;-0.995;-0.925;-0.8;-0.605;-0.34;0;0.37;0.735;1.035;1.225;1.3;1.295;1.21;0.99;0.66;0.185;-0.325;-0.77;-1.01;-1.07;-0.96;-0.84;-0.715;-0.66;-0.69;-0.735;-0.815;-0.855;-0.885;-0.915;-0.915;-0.925;-0.91;-0.92;-0.92;-0.93;-0.94;-0.95;-0.955;-0.945;-0.935;-0.91;-0.91;-0.925;-0.945;-0.945;-0.945;-0.935;-0.945;-0.955;-0.955;-0.95;-0.925;-0.93;-0.925;-0.925;-0.915;-0.945;-0.945;-0.94;-0.945;-0.95;-0.955;-0.95;-0.935;-0.935;-0.905;-0.915;-0.915;-0.92;-0.92;-0.93;-0.925;-0.925;-0.915;-0.91;-0.89;-0.88;-0.87;-0.87;-0.865;-0.875;-0.875;-0.885;-0.875;-0.86;-0.855;-0.85;-0.835;-0.81;-0.8;-0.79;-0.79;-0.775;-0.775;-0.775;-0.755;-0.755;-0.745;-0.715;-0.695;-0.67;-0.64;-0.605;-0.595;-0.6;-0.575;-0.58;-0.575;-0.545;-0.53;-0.52;-0.5;-0.48;-0.445;-0.435;-0.435;-0.42;-0.415;-0.41;-0.415;-0.42;-0.415;-0.425;-0.43;-0.425;-0.41;-0.435;-0.455;-0.49;-0.515;-0.535;-0.56;-0.6;-0.615;-0.63;-0.655;-0.65;-0.675;-0.7;-0.725;-0.74;-0.775;-0.805;-0.815;-0.83;-0.84;-0.84;-0.825;-0.83;-0.825;-0.84;-0.835;-0.85;-0.86;-0.88;-0.895;-0.885;-0.9;-0.885;-0.89;-0.865;-0.87;-0.885;-0.89;-0.87;-0.885;-0.89;-0.89;-0.875;-0.875;-0.86;-0.855;-0.85;-0.845;-0.845;-0.84;-0.85;-0.85;-0.87;-0.87;-0.845;-0.855;-0.845;-0.835;-0.825;-0.815;-0.815;-0.83;-0.835;-0.835;-0.845;-0.86;-0.865;-0.855;-0.84;-0.835;-0.835;-0.845;-0.83;-0.845;-0.835;-0.835;-0.835;-0.845;-0.865;-0.855;-0.85;-0.845;-0.835;-0.835;-0.85;-0.865;-0.875;-0.87;-0.885;-0.875;-0.885;-0.89;-0.87;-0.87;-0.86;-0.86;-0.845;-0.87;-0.865;-0.885;-0.885;-0.88;-0.885;-0.89;-0.895;-0.875;-0.865;-0.865;-0.87;-0.875;-0.885;-0.89;-0.895;-0.9;-0.91;-0.91;-0.89;-0.89;-0.88;-0.875;-0.87;-0.875;-0.885;-0.895;-0.885;-0.89;-0.89;-0.9;-0.91;-0.905;-0.89;-0.88;-0.87;-0.89;-0.89;-0.905;-0.905;-0.905;-0.905;-0.89;-0.87;-0.84;-0.81;-0.8;-0.765;-0.765;-0.75;-0.75;-0.755;-0.725;-0.715;-0.685;-0.645;-0.595;-0.57;-0.555;-0.515;-0.555;-0.575;-0.58;-0.59;-0.57;-0.605;-0.62;-0.635;-0.675;-0.725;-0.77;-0.845;-0.885;-0.91;-0.935;-0.95;-0.955;-0.945;-0.95;-0.945;-0.94;-0.92;-0.935;-0.93;-0.935;-0.955;-0.95;-0.98;-0.975;-0.99;-0.98;-0.975;-0.95;-0.95;-0.935;-0.925;-0.925;-0.93;-0.95;-0.96;-0.97;-0.98;-1;-1.02;-1.005;-0.965;-0.88;-0.725;-0.5;-0.225;0.15;0.515;0.87;1.11;1.23;1.245;1.155;0.9;0.51;-0.025;-0.555;-0.955;-1.115;-1.1;-0.97;-0.84;-0.73;-0.705;-0.73;-0.795;-0.835;-0.89;-0.925;-0.945;-0.945;-0.965;-0.975;-0.96;-0.975;-0.96;-0.96;-0.95;-0.955;-0.95;-0.95;-0.965;-0.965;-0.97;-0.975;-0.98;-0.99;-0.975;-0.965;-0.955;-0.945;-0.955;-0.96;-0.965;-0.97;-0.975;-0.975;-0.965;-0.965;-0.965;-0.945;-0.94;-0.935;-0.93;-0.94;-0.935;-0.95;-0.955;-0.955;-0.965;-0.96;-0.95;-0.915;-0.9;-0.885;-0.875;-0.86;-0.86;-0.875;-0.875;-0.87;-0.875;-0.88;-0.855;-0.815;-0.81;-0.79;-0.76;-0.765;-0.755;-0.75;-0.73;-0.73;-0.715;-0.675;-0.645;-0.615;-0.61;-0.575;-0.555;-0.565;-0.545;-0.545;-0.52;-0.51;-0.5;-0.48;-0.465;-0.455;-0.44;-0.415;-0.405;-0.395;-0.4;-0.41;-0.42;-0.405;-0.415;-0.415;-0.425;-0.435;-0.44;-0.455;-0.46;-0.485;-0.525;-0.56;-0.6;-0.625;-0.655;-0.69;-0.7;-0.705;-0.745;-0.735;-0.775;-0.79;-0.81;-0.835;-0.85;-0.87;-0.89;-0.905;-0.905;-0.895;-0.91;-0.895;-0.89;-0.895;-0.905;-0.93;-0.935;-0.945;-0.95;-0.95;-0.935;-0.925;-0.925;-0.915;-0.92;-0.925;-0.925;-0.93;-0.935;-0.91;-0.91;-0.92;-0.91;-0.895;-0.895;-0.895;-0.865;-0.87;-0.875;-0.885;-0.9;-0.9;-0.895;-0.905;-0.875;-0.86;-0.85;-0.835;-0.845;-0.855;-0.875;-0.88;-0.87;-0.865;-0.865;-0.865;-0.855;-0.845;-0.835;-0.835;-0.845;-0.87;-0.87;-0.89;-0.89;-0.885;-0.89;-0.88;-0.875;-0.87;-0.86;-0.845;-0.85;-0.86;-0.89;-0.895;-0.89;-0.885;-0.905;-0.89;-0.885;-0.9;-0.89;-0.89;-0.885;-0.89;-0.915;-0.92;-0.925;-0.935;-0.93;-0.94;-0.92;-0.91;-0.905;-0.88;-0.895;-0.9;-0.925;-0.925;-0.94;-0.915;-0.93;-0.93;-0.915;-0.895;-0.89;-0.87;-0.865;-0.865;-0.84;-0.83;-0.82;-0.815;-0.795;-0.775;-0.76;-0.75;-0.735;-0.68;-0.65;-0.615;-0.595;-0.58;-0.575;-0.59;-0.615;-0.625;-0.62;-0.605;-0.6;-0.595;-0.6;-0.635;-0.69;-0.725;-0.795;-0.85;-0.895;-0.935;-0.945;-0.94;-0.94;-0.935;-0.94;-0.95;-0.965;-0.995;-0.995;-0.99;-0.995;-0.995;-0.995;-0.985;-0.985;-0.96;-0.97;-0.97;-0.975;-0.975;-0.985;-0.99;-0.995;-0.98;-0.975;-0.96;-0.96;-0.97;-0.985;-1.005;-1.03;-1.075;-1.07;-1.035;-0.975;-0.855;-0.675;-0.42;-0.12;0.225;0.585;0.89;1.095;1.19;1.19;1.1;0.875;0.53;0.06;-0.445;-0.885;-1.12;-1.155;-1.05;-0.9;-0.79;-0.735;-0.74;-0.79;-0.86;-0.925;-0.97;-0.96;-0.97;-0.965;-0.965;-0.97;-1.005;-1.005;-1.005;-1.01;-1.01;-1.005;-1.005;-0.995;-0.99;-1;-1.01;-0.995;-1.01;-1.02;-1.015;-1.01;-1;-1.02;-1.03;-0.99;-1.005;-0.99;-0.995;-0.995;-1.015;-1.01;-1.02;-1.025;-1.025;-1.02;-1.01;-0.975;-0.975;-0.975;-0.965;-0.985;-0.995;-0.98;-0.995;-0.99;-0.98;-0.965;-0.945;-0.94;-0.935;-0.915;-0.915;-0.915;-0.925;-0.91;-0.91;-0.9;-0.905;-0.89;-0.865;-0.835;-0.805;-0.81;-0.795;-0.79;-0.79;-0.77;-0.755;-0.74;-0.735;-0.715;-0.685;-0.66;-0.635;-0.62;-0.615;-0.6;-0.595;-0.58;-0.575;-0.575;-0.56;-0.535;-0.515;-0.515;-0.51;-0.51;-0.485;-0.47;-0.475;-0.48;-0.485;-0.49;-0.5;-0.495;-0.505;-0.525;-0.53;-0.55;-0.6;-0.62;-0.66;-0.69;-0.73;-0.76;-0.79;-0.8;-0.81;-0.835;-0.855;-0.88;-0.9;-0.92;-0.925;-0.95;-0.96;-0.985;-0.99;-0.99;-0.97;-0.975;-0.965;-0.965;-0.975;-0.985;-0.99;-0.99;-1.005;-1.005;-1;-1.005;-0.975;-0.965;-0.96;-0.96;-0.97;-0.965;-0.975;-0.99;-0.995;-1.005;-1;-0.99;-0.975;-0.935;-0.95;-0.935;-0.935;-0.955;-0.955;-0.955;-0.955;-0.97;-0.955;-0.945;-0.93;-0.93;-0.915;-0.92;-0.92;-0.935;-0.955;-0.945;-0.965;-0.97;-0.96;-0.96;-0.95;-0.955;-0.94;-0.945;-0.93;-0.94;-0.95;-0.955;-0.965;-0.985;-0.975;-0.975;-0.96;-0.955;-0.95;-0.94;-0.95;-0.965;-0.97;-0.98;-0.975;-0.99;-0.99;-0.975;-0.98;-0.97;-0.975;-0.98;-0.975;-0.98;-0.985;-0.995;-1.005;-1.01;-1;-0.995;-0.98;-0.975;-0.975;-0.96;-0.975;-0.975;-0.98;-0.995;-0.99;-1;-1;-1;-0.985;-0.965;-0.975;-0.965;-0.965;-0.975;-0.98;-0.985;-0.985;-0.97;-0.955;-0.92;-0.9;-0.855;-0.84;-0.835;-0.815;-0.825;-0.81;-0.795;-0.765;-0.74;-0.71;-0.67;-0.665;-0.67;-0.665;-0.665;-0.695;-0.675;-0.68;-0.7;-0.735;-0.765;-0.815;-0.865;-0.92;-0.945;-0.975;-1;-0.985;-1.01;-1;-1.01;-1.015;-1.025;-1.025;-1.02;-1.01;-1.015;-1.005;-1.005;-1.02;-1.02;-1.03;-1.05;-1.06;-1.06;-1.065;-1.055;-1.035;-1.035;-1.01;-1.01;-1.005;-1.015;-1.025;-1.025;-1.03;-1.045;-1.06;-1.08;-1.095;-1.065;-0.965;-0.825;-0.605;-0.33;0.03;0.405;0.765;1.03;1.175;1.215;1.125;0.885;0.48;-0.04;-0.61;-1.005;-1.195;-1.175;-1.04;-0.885;-0.78;-0.75;-0.78;-0.835;-0.89;-0.945;-0.98;-1.005;-1.02;-1.025;-1.035;-1.025;-1.03;-1.025;-1.03;-1.04;-1.02;-1.015;-1.015;-1.02;-1.05;-1.04;-1.06;-1.055;-1.04;-1.05;-1.045;-1.035;-1.035;-1.025;-1.03;-1.03;-1.03;-1.045;-1.06;-1.05;-1.06;-1.055;-1.025;-1.025;-1.015;-1.01;-1.005;-1.015;-1.025;-1.025;-1.03;-1.035;-1.035;-1.015;-0.99;-0.99;-0.985;-0.955;-0.975;-0.98;-0.97;-0.975;-0.97;-0.97;-0.97;-0.955;-0.94;-0.905;-0.905;-0.885;-0.885;-0.88;-0.865;-0.87;-0.86;-0.85;-0.835;-0.81;-0.775;-0.76;-0.73;-0.71;-0.685;-0.675;-0.675;-0.67;-0.645;-0.635;-0.63;-0.59;-0.585;-0.55;-0.53;-0.51;-0.5;-0.485;-0.48;-0.47;-0.465;-0.46;-0.455;-0.455;-0.445;-0.45;-0.435;-0.455;-0.485;-0.495;-0.525;-0.56;-0.605;-0.635;-0.63;-0.65;-0.68;-0.715;-0.72;-0.735;-0.755;-0.775;-0.805;-0.845;-0.87;-0.905;-0.91;-0.905;-0.91;-0.91;-0.905;-0.895;-0.91;-0.925;-0.935;-0.96;-0.95;-0.965;-0.965;-0.96;-0.95;-0.94;-0.93;-0.93;-0.935;-0.93;-0.945;-0.955;-0.955;-0.96;-0.96;-0.955;-0.935;-0.92;-0.915;-0.915;-0.895;-0.905;-0.91;-0.93;-0.92;-0.925;-0.915;-0.925;-0.9;-0.885;-0.88;-0.87;-0.875;-0.885;-0.9;-0.895;-0.9;-0.915;-0.92;-0.905;-0.89;-0.89;-0.885;-0.885;-0.885;-0.91;-0.91;-0.935;-0.935;-0.925;-0.935;-0.92;-0.925;-0.91;-0.915;-0.91;-0.915;-0.915;-0.925;-0.93;-0.945;-0.95;-0.95;-0.945;-0.955;-0.95;-0.95;-0.92;-0.925;-0.935;-0.96;-0.955;-0.95;-0.96;-0.95;-0.95;-0.95;-0.935;-0.93;-0.935;-0.945;-0.955;-0.975;-0.98;-0.97;-0.975;-0.97;-0.98;-0.97;-0.97;-0.95;-0.95;-0.955;-0.955;-0.97;-0.975;-0.985;-0.975;-0.98;-0.97;-0.96;-0.935;-0.935;-0.93;-0.935;-0.925;-0.945;-0.94;-0.935;-0.93;-0.91;-0.87;-0.865;-0.825;-0.8;-0.805;-0.78;-0.77;-0.75;-0.74;-0.705;-0.675;-0.64;-0.605;-0.605;-0.605;-0.59;-0.605;-0.615;-0.615;-0.615;-0.625;-0.655;-0.69;-0.74;-0.8;-0.84;-0.9;-0.925;-0.945;-0.97;-0.965;-0.97;-0.97;-0.985;-0.99;-0.995;-0.995;-0.995;-0.99;-0.99;-0.985;-0.99;-1.01;-1.015;-1.015;-1.035;-1.025;-1.03;-1.03;-1.015;-1.01;-1.005;-0.995;-0.985;-0.99;-1.015;-1.035;-1.035;-1.055;-1.06;-1.085;-1.065;-1;-0.9;-0.715;-0.46;-0.145;0.25;0.63;0.93;1.1;1.18;1.155;1.01;0.72;0.3;-0.22;-0.73;-1.05;-1.16;-1.115;-0.97;-0.865;-0.79;-0.79;-0.83;-0.88;-0.93;-0.965;-1.005;-1.01;-1.025;-1.035;-1.03;-1.04;-1.045;-1.04;-1.035;-1.04;-1.035;-1.02;-1.035;-1.03;-1.035;-1.05;-1.065;-1.06;-1.075;-1.07;-1.06;-1.045;-1.035;-1.045;-1.045;-1.045;-1.06;-1.055;-1.06;-1.06;-1.07;-1.07;-1.045;-1.03;-1.035;-1.035;-1.015;-1.01;-1.005;-1.025;-1.04;-1.05;-1.035;-1.03;-1.01;-1.01;-0.995;-0.97;-0.99;-0.975;-0.97;-0.98;-0.985;-0.98;-0.975;-0.965;-0.92;-0.92;-0.905;-0.895;-0.88;-0.875;-0.865;-0.875;-0.875;-0.865;-0.835;-0.815;-0.8;-0.77;-0.755;-0.73;-0.715;-0.71;-0.695;-0.675;-0.665;-0.645;-0.645;-0.62;-0.595;-0.57;-0.555;-0.53;-0.525;-0.525;-0.505;-0.515;-0.505;-0.495;-0.495;-0.475;-0.47;-0.475;-0.47;-0.485;-0.5;-0.55;-0.565;-0.585;-0.61;-0.66;-0.675;-0.695;-0.715;-0.725;-0.74;-0.785;-0.815;-0.83;-0.855;-0.875;-0.895;-0.92;-0.945;-0.935;-0.935;-0.935;-0.93;-0.95;-0.96;-0.96;-0.97;-0.99;-0.98;-0.995;-1;-1.005;-0.995;-0.99;-0.99;-0.975;-0.975;-0.985;-0.99;-0.99;-1.005;-1.005;-0.99;-0.985;-0.98;-0.98;-0.96;-0.96;-0.97;-0.955;-0.98;-0.98;-0.98;-0.97;-0.975;-0.985;-0.975;-0.965;-0.96;-0.95;-0.945;-0.955;-0.95;-0.955;-0.97;-0.965;-0.96;-0.96;-0.95;-0.945;-0.94;-0.93;-0.945;-0.95;-0.98;-0.97;-0.965;-0.97;-0.965;-0.97;-0.965;-0.96;-0.95;-0.945;-0.945;-0.955;-0.99;-0.97;-0.98;-0.985;-0.985;-0.985;-0.98;-0.97;-0.975;-0.945;-0.97;-0.975;-0.985;-1.01;-1;-1.02;-1;-1.01;-1.01;-1;-0.99;-0.985;-0.975;-0.99;-1.01;-1.01;-1.02;-1.025;-1.02;-1.02;-1;-1.01;-0.99;-0.98;-0.985;-0.99;-1.005;-1.015;-1.02;-1.01;-1.015;-1;-0.985;-0.97;-0.96;-0.935;-0.925;-0.89;-0.885;-0.88;-0.885;-0.87;-0.85;-0.855;-0.84;-0.78;-0.71;-0.675;-0.665;-0.67;-0.68;-0.7;-0.71;-0.705;-0.695;-0.71;-0.71;-0.72;-0.755;-0.795;-0.865;-0.9;-0.96;-1.005;-1.04;-1.05;-1.07;-1.06;-1.05;-1.04;-1.045;-1.03;-1.045;-1.05;-1.065;-1.06;-1.08;-1.08;-1.075;-1.07;-1.08;-1.07;-1.07;-1.065;-1.045;-1.07;-1.065;-1.07;-1.065;-1.06;-1.065;-1.075;-1.055;-1.07;-1.09;-1.11;-1.125;-1.09;-1.015;-0.9;-0.705;-0.43;-0.105;0.275;0.645;0.94;1.11;1.175;1.15;1.005;0.73;0.31;-0.175;-0.685;-1.055;-1.235;-1.21;-1.09;-0.935;-0.81;-0.785;-0.8;-0.875;-0.945;-1.01;-1.06;-1.08;-1.085;-1.05;-1.04;-1.04;-1.04;-1.045;-1.055;-1.085;-1.065;-1.075;-1.07;-1.085;-1.095;-1.075;-1.07;-1.065;-1.06;-1.07;-1.07;-1.075
6;0;-0.955;-1.015;-1.06;-1.085;-1.09;-1.095;-1.085;-1.07;-1.07;-1.065;-1.055;-1.07;-1.095;-1.095;-1.085;-1.095;-1.1;-1.105;-1.1;-1.095;-1.09;-1.08;-1.075;-1.075;-1.085;-1.085;-1.09;-1.105;-1.095;-1.11;-1.105;-1.095;-1.09;-1.085;-1.065;-1.05;-1.065;-1.065;-1.07;-1.09;-1.1;-1.105;-1.095;-1.085;-1.075;-1.065;-1.045;-1.045;-1.05;-1.045;-1.055;-1.05;-1.05;-1.05;-1.02;-1.025;-1;-0.99;-0.97;-0.95;-0.945;-0.935;-0.94;-0.94;-0.955;-0.93;-0.915;-0.905;-0.875;-0.85;-0.83;-0.8;-0.78;-0.78;-0.77;-0.755;-0.75;-0.73;-0.695;-0.675;-0.66;-0.625;-0.61;-0.58;-0.57;-0.57;-0.565;-0.55;-0.545;-0.535;-0.52;-0.505;-0.5;-0.495;-0.51;-0.5;-0.51;-0.54;-0.565;-0.58;-0.625;-0.645;-0.675;-0.7;-0.715;-0.735;-0.765;-0.795;-0.81;-0.855;-0.87;-0.89;-0.925;-0.935;-0.96;-0.965;-0.97;-0.975;-0.985;-0.965;-0.975;-0.99;-1.01;-1.015;-1.025;-1.03;-1.025;-1.015;-1.01;-0.995;-0.985;-0.995;-1.005;-0.985;-1.01;-1.015;-1.03;-1.04;-1.04;-1.015;-1;-0.99;-0.99;-0.98;-0.965;-0.99;-0.995;-1.01;-1.005;-1;-0.99;-0.97;-0.965;-0.955;-0.96;-0.94;-0.945;-0.95;-0.985;-0.985;-0.975;-0.985;-0.975;-0.975;-0.955;-0.955;-0.96;-0.965;-0.95;-0.96;-0.98;-0.995;-0.995;-1.005;-1.005;-0.98;-0.985;-0.985;-0.99;-0.975;-0.98;-0.985;-1;-1.01;-1.015;-1.01;-1.025;-1.025;-1.015;-1.005;-1;-1;-0.995;-1.02;-1.01;-1.015;-1.03;-1.035;-1.025;-1.02;-1.01;-1.01;-1;-1.005;-1.01;-1.02;-1.025;-1.035;-1.03;-1.04;-1.035;-1.04;-1.02;-1.01;-1.02;-1.01;-1.015;-1.015;-1.04;-1.03;-1.02;-1.02;-1.03;-1.035;-1.05;-1.04;-1.045;-1.025;-1.015;-1.015;-1.025;-1.03;-1.005;-1.015;-0.98;-0.96;-0.925;-0.9;-0.88;-0.855;-0.845;-0.855;-0.865;-0.855;-0.83;-0.805;-0.755;-0.71;-0.675;-0.68;-0.655;-0.665;-0.685;-0.7;-0.7;-0.695;-0.715;-0.75;-0.785;-0.825;-0.885;-0.94;-0.985;-1.005;-1.035;-1.055;-1.06;-1.075;-1.075;-1.085;-1.085;-1.09;-1.085;-1.085;-1.075;-1.07;-1.075;-1.095;-1.115;-1.12;-1.13;-1.13;-1.115;-1.115;-1.115;-1.105;-1.09;-1.08;-1.075;-1.075;-1.075;-1.09;-1.09;-1.125;-1.12;-1.15;-1.17;-1.16;-1.14;-1.04;-0.88;-0.67;-0.415;-0.075;0.3;0.645;0.915;1.065;1.125;1.095;0.93;0.63;0.205;-0.34;-0.835;-1.155;-1.27;-1.2;-1.07;-0.93;-0.845;-0.835;-0.87;-0.94;-1.01;-1.055;-1.095;-1.105;-1.11;-1.11;-1.115;-1.115;-1.1;-1.09;-1.095;-1.095;-1.09;-1.1;-1.125;-1.14;-1.145;-1.155;-1.135;-1.15;-1.145;-1.13;-1.12;-1.12;-1.125;-1.125;-1.145;-1.15;-1.145;-1.165;-1.155;-1.145;-1.15;-1.13;-1.125;-1.13;-1.145;-1.13;-1.15;-1.145;-1.155;-1.15;-1.15;-1.135;-1.125;-1.105;-1.11;-1.1;-1.095;-1.09;-1.095;-1.09;-1.11;-1.1;-1.09;-1.075;-1.07;-1.045;-1.035;-1.04;-1.025;-1.02;-1.015;-1.015;-1.015;-1.025;-1.005;-0.98;-0.96;-0.935;-0.91;-0.895;-0.87;-0.855;-0.855;-0.835;-0.84;-0.845;-0.805;-0.79;-0.745;-0.725;-0.71;-0.68;-0.675;-0.66;-0.66;-0.665;-0.655;-0.645;-0.61;-0.605;-0.565;-0.55;-0.54;-0.535;-0.545;-0.555;-0.57;-0.59;-0.62;-0.635;-0.65;-0.665;-0.665;-0.69;-0.72;-0.75;-0.765;-0.78;-0.82;-0.87;-0.895;-0.945;-0.945;-0.955;-0.955;-0.98;-0.975;-1;-1.015;-1.03;-1.05;-1.065;-1.06;-1.08;-1.08;-1.075;-1.07;-1.06;-1.065;-1.055;-1.05;-1.055;-1.07;-1.08;-1.085;-1.09;-1.095;-1.08;-1.07;-1.075;-1.05;-1.035;-1.045;-1.05;-1.06;-1.065;-1.065;-1.065;-1.06;-1.05;-1.055;-1.045;-1.035;-1.02;-1.03;-1.035;-1.05;-1.045;-1.06;-1.055;-1.065;-1.055;-1.035;-1.025;-1.015;-1.005;-1.005;-1.02;-1.04;-1.04;-1.05;-1.04;-1.035;-1.04;-1.035;-1.03;-1.035;-1.025;-1.015;-1.035;-1.035;-1.05;-1.05;-1.05;-1.06;-1.06;-1.045;-1.045;-1.035;-1.035;-1.03;-1.04;-1.05;-1.06;-1.06;-1.075;-1.07;-1.085;-1.07;-1.05;-1.04;-1.03;-1.055;-1.05;-1.055;-1.065;-1.09;-1.08;-1.075;-1.065;-1.07;-1.07;-1.07;-1.05;-1.05;-1.05;-1.05;-1.07;-1.09;-1.095;-1.08;-1.085;-1.07;-1.04;-1.05;-1.02;-1.025;-1.015;-1;-0.995;-0.99;-0.965;-0.95;-0.94;-0.905;-0.885;-0.85;-0.82;-0.795;-0.75;-0.74;-0.705;-0.7;-0.695;-0.73;-0.73;-0.73;-0.725;-0.725;-0.73;-0.755;-0.79;-0.86;-0.925;-0.985;-1.03;-1.07;-1.085;-1.08;-1.075;-1.055;-1.04;-1.06;-1.065;-1.06;-1.085;-1.085;-1.1;-1.1;-1.11;-1.09;-1.09;-1.075;-1.06;-1.075;-1.09;-1.095;-1.1;-1.1;-1.105;-1.095;-1.085;-1.08;-1.065;-1.065;-1.06;-1.06;-1.085;-1.11;-1.14;-1.16;-1.14;-1.065;-0.95;-0.775;-0.54;-0.25;0.13;0.495;0.825;1.075;1.175;1.215;1.12;0.915;0.545;0.045;-0.525;-0.97;-1.205;-1.235;-1.135;-0.985;-0.895;-0.845;-0.865;-0.92;-0.995;-1.045;-1.08;-1.08;-1.07;-1.07;-1.065;-1.06;-1.07;-1.075;-1.085;-1.1;-1.09;-1.085;-1.09;-1.07;-1.065;-1.065;-1.07;-1.085;-1.095;-1.105;-1.115;-1.115;-1.115;-1.085;-1.085;-1.085;-1.075;-1.09;-1.095;-1.09;-1.11;-1.09;-1.105;-1.105;-1.085;-1.07;-1.06;-1.05;-1.055;-1.055;-1.06;-1.075;-1.075;-1.075;-1.08;-1.07;-1.06;-1.045;-1.03;-1.03;-1.01;-1.01;-1.015;-1.01;-1;-0.995;-0.98;-0.97;-0.955;-0.925;-0.925;-0.885;-0.865;-0.875;-0.855;-0.84;-0.83;-0.82;-0.795;-0.79;-0.76;-0.745;-0.71;-0.685;-0.67;-0.64;-0.645;-0.625;-0.63;-0.625;-0.605;-0.6;-0.6;-0.56;-0.545;-0.53;-0.5;-0.495;-0.495;-0.505;-0.515;-0.505;-0.5;-0.525;-0.53;-0.535;-0.545;-0.565;-0.58;-0.61;-0.65;-0.68;-0.71;-0.735;-0.76;-0.78;-0.805;-0.83;-0.845;-0.86;-0.88;-0.905;-0.925;-0.95;-0.95;-0.97;-0.99;-0.995;-1.005;-1.005;-0.98;-0.975;-0.975;-0.99;-1.01;-1.005;-1.01;-1.01;-1.02;-1.025;-1.03;-1.015;-1;-0.98;-0.975;-0.985;-0.985;-1;-0.99;-0.995;-0.995;-0.99;-1;-0.99;-0.985;-0.965;-0.96;-0.96;-0.95;-0.965;-0.985;-0.995;-0.98;-0.97;-0.97;-0.965;-0.945;-0.945;-0.93;-0.935;-0.955;-0.96;-0.96;-0.98;-0.98;-0.99;-0.985;-0.975;-0.97;-0.965;-0.965;-0.965;-0.96;-0.98;-0.985;-0.985;-0.98;-0.995;-0.99;-0.99;-0.975;-0.975;-0.965;-0.975;-0.985;-0.99;-1.01;-1.015;-1.01;-1.005;-1.005;-1.01;-1;-0.99;-0.995;-0.995;-1.01;-1.01;-1.01;-1.04;-1.025;-1.02;-1.03;-1.01;-1.015;-1.02;-1.005;-1.015;-0.99;-1.005;-1.015;-1.02;-1.03;-1.04;-1.035;-1.035;-1.015;-1.01;-0.995;-1.015;-1.01;-1.01;-1.015;-1.025;-1.01;-1.005;-0.99;-0.975;-0.935;-0.92;-0.875;-0.885;-0.86;-0.87;-0.865;-0.835;-0.825;-0.795;-0.76;-0.695;-0.66;-0.65;-0.655;-0.66;-0.685;-0.69;-0.695;-0.705;-0.72;-0.74;-0.78;-0.81;-0.87;-0.925;-0.96;-1.005;-1.025;-1.04;-1.065;-1.06;-1.06;-1.06;-1.08;-1.045;-1.04;-1.04;-1.045;-1.065;-1.05;-1.06;-1.08;-1.085;-1.085;-1.09;-1.09;-1.07;-1.07;-1.065;-1.045;-1.065;-1.05;-1.05;-1.06;-1.065;-1.08;-1.085;-1.105;-1.12;-1.115;-1.13;-1.06;-0.945;-0.77;-0.5;-0.145;0.255;0.64;0.955;1.175;1.255;1.23;1.08;0.8;0.345;-0.225;-0.76;-1.115;-1.25;-1.205;-1.085;-0.925;-0.825;-0.8;-0.84;-0.885;-0.96;-1;-1.035;-1.05;-1.075;-1.075;-1.065;-1.07;-1.085;-1.08;-1.075;-1.065;-1.07;-1.08;-1.075;-1.085;-1.095;-1.09;-1.1;-1.105;-1.09;-1.08;-1.09;-1.08;-1.095;-1.085;-1.09;-1.1;-1.105;-1.11;-1.105;-1.1;-1.09;-1.085;-1.075;-1.07;-1.075;-1.07;-1.075;-1.085;-1.075;-1.085;-1.075;-1.075;-1.07;-1.055;-1.045;-1.035;-1.04;-1.03;-1.03;-1.025;-1.035;-1.035;-1.025;-1.02;-1.01;-1.01;-0.97;-0.955;-0.955;-0.93;-0.935;-0.93;-0.935;-0.93;-0.93;-0.92;-0.885;-0.87;-0.84;-0.825;-0.805;-0.79;-0.775;-0.765;-0.76;-0.745;-0.735;-0.715;-0.675;-0.655;-0.64;-0.605;-0.6;-0.57;-0.55;-0.555;-0.55;-0.55;-0.535;-0.535;-0.505;-0.49;-0.49;-0.47;-0.475;-0.48;-0.505;-0.52;-0.53;-0.55;-0.57;-0.59;-0.595;-0.62;-0.64;-0.665;-0.7;-0.73;-0.765;-0.8;-0.825;-0.865;-0.89;-0.9;-0.91;-0.9;-0.92;-0.925;-0.935;-0.945;-0.96;-0.975;-0.985;-0.98;-1.005;-0.99;-0.99;-0.99;-0.98;-0.98;-0.975;-0.98;-0.99;-0.995;-1.005;-1;-1.01;-0.995;-0.99;-0.99;-0.99;-0.975;-0.97;-0.97;-0.96;-0.975;-0.99;-0.99;-0.995;-1.01;-0.99;-0.98;-0.96;-0.955;-0.945;-0.945;-0.955;-0.975;-0.97;-0.97;-0.975;-0.97;-0.96;-0.945;-0.945;-0.945;-0.95;-0.94;-0.935;-0.95;-0.955;-0.97;-0.985;-1;-0.99;-0.975;-0.97;-0.965;-0.95;-0.955;-0.95;-0.965;-0.985;-0.995;-1.005;-0.99;-0.985;-0.995;-0.98;-0.985;-0.98;-0.975;-0.965;-0.97;-0.975;-0.98;-0.995;-0.995;-1;-0.985;-0.97;-0.95;-0.96;-0.965;-0.97;-0.99;-1;-1.015;-1.015;-1.02;-1.005;-0.99;-0.99;-0.985;-0.98;-0.98;-0.99;-0.99;-1.01;-1.025;-1.015;-1.005;-1;-0.995;-0.985;-0.975;-0.98;-1.005;-0.99;-1.01;-1.015;-1.025;-1.03;-1.01;-0.995;-0.995;-0.995;-0.965;-0.95;-0.945;-0.93;-0.94;-0.935;-0.915;-0.9;-0.885;-0.865;-0.84;-0.825;-0.8;-0.785;-0.77;-0.73;-0.705;-0.675;-0.665;-0.65;-0.64;-0.64;-0.64;-0.665;-0.655;-0.645;-0.655;-0.675;-0.72;-0.77;-0.85;-0.915;-0.975;-1;-0.995;-1.005;-1;-1.005;-1;-1.005;-1.02;-1.04;-1.065;-1.065;-1.06;-1.06;-1.055;-1.03;-1.04;-1.035;-1.04;-1.04;-1.075;-1.075;-1.075;-1.07;-1.07;-1.05;-1.04;-1.04;-1.02;-1.02;-1.035;-1.03;-1.04;-1.09;-1.12;-1.15;-1.14;-1.06;-0.945;-0.77;-0.51;-0.175;0.2;0.6;0.925;1.145;1.24;1.185;1.04;0.715;0.255;-0.295;-0.795;-1.105;-1.195;-1.12;-0.995;-0.88;-0.83;-0.81;-0.86;-0.92;-0.995;-1.025;-1.02;-1.025;-1.02;-1.025;-1.02;-1.045;-1.06;-1.065;-1.07;-1.06;-1.055;-1.045;-1.045;-1.055;-1.045;-1.065;-1.075;-1.1;-1.095;-1.095;-1.075;-1.075;-1.075;-1.06;-1.075;-1.065;-1.06;-1.07;-1.07;-1.075;-1.09;-1.095;-1.095;-1.09;-1.075;-1.065;-1.05;-1.045;-1.045;-1.05;-1.055;-1.06;-1.065;-1.065;-1.06;-1.055;-1.02;-1.02;-1.01;-1.005;-1.005;-0.995;-1.01;-1;-0.995;-1;-1;-0.97;-0.965;-0.96;-0.95;-0.92;-0.905;-0.89;-0.885;-0.875;-0.87;-0.875;-0.86;-0.84;-0.805;-0.77;-0.755;-0.735;-0.725;-0.7;-0.685;-0.69;-0.665;-0.665;-0.65;-0.615;-0.59;-0.58;-0.545;-0.525;-0.5;-0.495;-0.5;-0.495;-0.495;-0.49;-0.475;-0.48;-0.455;-0.475;-0.46;-0.485;-0.5;-0.52;-0.55;-0.57;-0.62;-0.65;-0.665;-0.7;-0.71;-0.73;-0.74;-0.765;-0.79;-0.82;-0.845;-0.86;-0.885;-0.895;-0.92;-0.92;-0.94;-0.935;-0.955;-0.955;-0.96;-0.97;-0.97;-0.975;-0.99;-1.005;-0.985;-0.995;-0.97;-0.975;-0.97;-0.965;-0.95;-0.945;-0.965;-0.965;-0.98;-0.98;-0.975;-0.98;-0.965;-0.96;-0.96;-0.945;-0.945;-0.955;-0.935;-0.945;-0.945;-0.95;-0.95;-0.945;-0.92;-0.93;-0.915;-0.91;-0.905;-0.92;-0.925;-0.94;-0.955;-0.94;-0.95;-0.945;-0.925;-0.925;-0.92;-0.915;-0.935;-0.935;-0.95;-0.935;-0.945;-0.955;-0.945;-0.94;-0.945;-0.94;-0.92;-0.91;-0.92;-0.91;-0.93;-0.97;-0.965;-0.945;-0.955;-0.96;-0.95;-0.95;-0.945;-0.935;-0.925;-0.94;-0.95;-0.97;-0.96;-0.975;-0.96;-0.955;-0.94;-0.92;-0.92;-0.915;-0.92;-0.935;-0.945;-0.955;-0.945;-0.945;-0.95;-0.955;-0.94;-0.94;-0.955;-0.935;-0.935;-0.93;-0.92;-0.915;-0.905;-0.875;-0.865;-0.845;-0.81;-0.805;-0.77;-0.725;-0.695;-0.66;-0.64;-0.61;-0.59;-0.6;-0.61;-0.625;-0.625;-0.615;-0.63;-0.62;-0.66;-0.695;-0.725;-0.8;-0.845;-0.9;-0.93;-0.95;-0.95;-0.945;-0.955;-0.945;-0.97;-0.965;-0.96;-0.97;-0.975;-0.975;-0.98;-0.995;-0.995;-0.985;-0.99;-0.985;-0.98;-0.985;-1;-1;-1;-0.995;-0.995;-0.99;-0.975;-0.98;-0.965;-0.955;-0.96;-0.99;-1.04;-1.07;-1.05;-0.985;-0.865;-0.655;-0.375;-0.025;0.37;0.78;1.07;1.26;1.325;1.27;1.065;0.725;0.225;-0.345;-0.845;-1.12;-1.175;-1.045;-0.91;-0.77;-0.715;-0.735;-0.775;-0.86;-0.915;-0.95;-0.975;-0.96;-0.955;-0.96;-0.965;-0.965;-0.98;-0.985;-1.005;-1.01;-1.005;-0.995;-0.995;-0.985;-0.965;-0.945;-0.97;-0.965;-0.985;-1;-0.995;-1;-1;-1.005;-0.98;-0.975;-0.98;-0.975;-0.97;-0.98;-1;-1.005;-1;-1.01;-1.005;-1.005;-0.995;-0.99;-0.975;-0.97;-0.96;-0.96;-0.965;-0.965;-0.97;-0.97;-0.95;-0.945;-0.93;-0.93;-0.925;-0.9;-0.895;-0.895;-0.895;-0.885;-0.87;-0.88;-0.85;-0.84;-0.83;-0.805;-0.785;-0.765;-0.75;-0.735;-0.73;-0.725;-0.705;-0.69;-0.67;-0.645;-0.635;-0.605;-0.575;-0.555;-0.53;-0.535;-0.545;-0.505;-0.505;-0.5;-0.495;-0.48;-0.465;-0.435;-0.425;-0.415;-0.425;-0.415;-0.425;-0.43;-0.445;-0.46;-0.49;-0.495;-0.51;-0.53;-0.555;-0.555;-0.575;-0.6;-0.64;-0.67;-0.71;-0.74;-0.77;-0.785;-0.79;-0.8;-0.82;-0.835;-0.86;-0.865;-0.895;-0.9;-0.905;-0.935;-0.93;-0.935;-0.92;-0.92;-0.92;-0.92;-0.925;-0.935;-0.94;-0.94;-0.955;-0.95;-0.955;-0.965;-0.95;-0.92;-0.905;-0.9;-0.91;-0.91;-0.9;-0.9;-0.92;-0.915;-0.905;-0.895;-0.895;-0.89;-0.86;-0.86;-0.87;-0.87;-0.875;-0.885;-0.88;-0.885;-0.89;-0.88;-0.875;-0.87;-0.87;-0.845;-0.86;-0.87;-0.87;-0.89;-0.895;-0.895;-0.905;-0.885;-0.88;-0.87;-0.875;-0.875;-0.88;-0.89;-0.89;-0.9;-0.91;-0.915;-0.925;-0.905;-0.915;-0.89;-0.905;-0.9;-0.895;-0.905;-0.935;-0.945;-0.93;-0.95;-0.925;-0.945;-0.925;-0.93;-0.92;-0.91;-0.915;-0.935;-0.94;-0.955;-0.945;-0.945;-0.945;-0.94;-0.945;-0.925;-0.91;-0.915;-0.92;-0.925;-0.935;-0.945;-0.95;-0.965;-0.95;-0.95;-0.935;-0.925;-0.915;-0.925;-0.91;-0.91;-0.905;-0.905;-0.865;-0.865;-0.85;-0.83;-0.8;-0.775;-0.775;-0.75;-0.735;-0.72;-0.69;-0.655;-0.62;-0.62;-0.605;-0.615;-0.62;-0.625;-0.605;-0.605;-0.6;-0.635;-0.64;-0.685;-0.725;-0.785;-0.86;-0.915;-0.935;-0.95;-0.955;-0.955;-0.955;-0.98;-0.97;-0.97;-0.985;-0.995;-1.01;-1;-1.015;-1;-1;-0.98;-0.995;-1;-1.005;-1.01;-1.015;-1.025;-1.02;-1.02;-1;-0.98;-0.97;-0.975;-0.98;-0.995;-1.025;-1.06;-1.07;-1.055;-0.995;-0.85;-0.61;-0.31;0.05;0.455;0.845;1.135;1.315;1.375;1.345;1.215;0.945;0.545;0.03;-0.51;-0.925;-1.12;-1.115;-1;-0.855;-0.745;-0.72;-0.745;-0.81;-0.89;-0.935;-0.955;-0.965;-0.97;-0.97;-0.975;-0.98;-0.98;-1.025;-1.03;-1.025;-1.025;-1.005;-1.015;-1.005;-0.99;-1.01;-1.035;-1.025;-1.045;-1.03;-1.025;-1.035;-1.05;-1.035;-1.015;-1.015;-0.99;-0.995;-1.02;-1;-1.02;-1.015;-1.02;-1.02;-1.015;-1.02;-1.005;-1;-0.985;-0.99;-0.995;-0.995;-0.99;-1.005;-1.015;-1.02;-1.005;-0.98;-0.97;-0.95;-0.935;-0.93;-0.92;-0.925;-0.94;-0.935;-0.925;-0.92;-0.915;-0.885;-0.87;-0.855;-0.825;-0.815;-0.8;-0.79;-0.81;-0.785;-0.765;-0.775;-0.75;-0.73;-0.695;-0.66;-0.63;-0.615;-0.6;-0.585;-0.59;-0.575;-0.555;-0.54;-0.545;-0.515;-0.49;-0.46;-0.435;-0.44;-0.435;-0.415;-0.425;-0.44;-0.42;-0.445;-0.455;-0.465;-0.465;-0.465;-0.475;-0.505;-0.535;-0.565;-0.615;-0.645;-0.69;-0.71;-0.735;-0.755;-0.76;-0.77;-0.795;-0.825;-0.855;-0.87;-0.895;-0.905;-0.92;-0.94;-0.94;-0.935;-0.9;-0.9;-0.89;-0.915;-0.92;-0.925;-0.93;-0.93;-0.945;-0.955;-0.965;-0.955;-0.92;-0.925;-0.92;-0.9;-0.93;-0.925;-0.94;-0.945;-0.95;-0.96;-0.94;-0.925;-0.92;-0.92;-0.91;-0.915;-0.91;-0.915;-0.925;-0.94;-0.955;-0.96;-0.945;-0.94;-0.925;-0.92;-0.91;-0.905;-0.92;-0.915;-0.91;-0.925;-0.91;-0.905;-0.905;-0.91;-0.91;-0.895;-0.885;-0.885;-0.895;-0.89;-0.91;-0.925;-0.925;-0.925;-0.935;-0.935;-0.93;-0.915;-0.91;-0.925;-0.905;-0.91;-0.93;-0.96;-0.96;-0.975;-0.97;-0.94;-0.95;-0.935;-0.955;-0.945;-0.95;-0.96;-0.965;-0.98;-0.965;-0.975;-0.975;-0.96;-0.95;-0.945;-0.935;-0.95;-0.945;-0.945;-0.98;-0.955;-0.97;-0.995;-0.98;-0.97;-0.96;-0.955;-0.945;-0.96;-0.96;-0.96;-0.975;-0.975;-0.975;-0.98;-0.98;-0.965;-0.95;-0.965;-0.955;-0.965;-0.965;-0.975;-0.98;-0.99;-0.98;-0.97;-0.98;-0.945;-0.905;-0.875
7;0;-1.02;-1.01;-1.035;-1.02;-1.025;-1.01;-1;-1.005;-0.985;-0.99;-0.99;-0.995;-1;-1;-1.005;-1.005;-1.005;-0.995;-0.985;-0.975;-0.98;-0.985;-0.985;-1;-1;-1;-1.005;-1.03;-1;-1.01;-0.995;-0.99;-0.975;-0.97;-0.97;-0.975;-1;-0.995;-0.99;-1.015;-0.99;-0.985;-0.975;-0.975;-0.975;-0.97;-0.965;-0.995;-0.99;-1;-0.99;-0.995;-1.005;-0.995;-0.985;-0.975;-0.96;-0.965;-0.975;-0.97;-0.975;-0.99;-0.995;-0.995;-1.01;-0.98;-0.975;-0.975;-0.965;-0.96;-0.985;-0.99;-0.985;-0.995;-1.01;-1;-0.995;-0.99;-0.975;-0.97;-0.96;-0.965;-0.965;-0.965;-0.975;-0.975;-0.975;-0.98;-0.98;-0.985;-0.975;-0.955;-0.96;-0.955;-0.955;-0.97;-0.965;-0.97;-0.98;-1;-1;-1.005;-0.975;-0.975;-0.975;-0.965;-0.955;-0.965;-0.97;-0.965;-0.97;-0.975;-0.96;-0.96;-0.96;-0.95;-0.93;-0.935;-0.935;-0.94;-0.955;-0.955;-0.955;-0.975;-0.965;-0.96;-0.95;-0.94;-0.935;-0.93;-0.925;-0.925;-0.95;-0.96;-0.96;-0.965;-0.97;-0.95;-0.935;-0.925;-0.91;-0.9;-0.895;-0.885;-0.885;-0.865;-0.85;-0.835;-0.83;-0.79;-0.78;-0.765;-0.73;-0.725;-0.7;-0.675;-0.63;-0.605;-0.59;-0.62;-0.63;-0.63;-0.62;-0.615;-0.61;-0.615;-0.625;-0.645;-0.705;-0.765;-0.825;-0.885;-0.915;-0.935;-0.955;-0.965;-0.965;-0.965;-1;-0.98;-0.99;-0.985;-1.005;-1.03;-1.005;-1;-0.995;-0.97;-0.975;-0.97;-0.99;-0.975;-1;-1;-1.01;-1.01;-1.01;-1.035;-1.045;-1.07;-1.07;-1.035;-0.95;-0.805;-0.605;-0.325;0.005;0.355;0.705;0.98;1.14;1.175;1.15;0.995;0.72;0.325;-0.165;-0.65;-1.005;-1.15;-1.13;-0.995;-0.85;-0.76;-0.74;-0.785;-0.85;-0.925;-0.975;-1.015;-1.02;-1.035;-1.035;-1.02;-1.01;-0.995;-1.01;-1.015;-1.03;-1.045;-1.05;-1.05;-1.06;-1.055;-1.075;-1.065;-1.055;-1.045;-1.035;-1.045;-1.055;-1.055;-1.065;-1.07;-1.09;-1.09;-1.105;-1.085;-1.065;-1.07;-1.045;-1.04;-1.055;-1.06;-1.065;-1.085;-1.095;-1.11;-1.1;-1.095;-1.085;-1.06;-1.07;-1.065;-1.06;-1.065;-1.065;-1.07;-1.07;-1.065;-1.06;-1.05;-1.04;-1.04;-1.02;-1.01;-1.015;-1.01;-1.015;-1.02;-1.01;-1.025;-1;-0.99;-0.98;-0.95;-0.95;-0.945;-0.915;-0.935;-0.915;-0.895;-0.895;-0.875;-0.865;-0.845;-0.825;-0.805;-0.79;-0.77;-0.775;-0.78;-0.775;-0.76;-0.735;-0.735;-0.72;-0.69;-0.67;-0.65;-0.625;-0.62;-0.61;-0.595;-0.6;-0.6;-0.585;-0.58;-0.57;-0.555;-0.535;-0.54;-0.535;-0.545;-0.575;-0.595;-0.62;-0.645;-0.655;-0.665;-0.69;-0.69;-0.715;-0.71;-0.735;-0.755;-0.77;-0.785;-0.805;-0.84;-0.86;-0.885;-0.88;-0.9;-0.89;-0.885;-0.885;-0.885;-0.905;-0.92;-0.93;-0.94;-0.935;-0.93;-0.935;-0.93;-0.915;-0.915;-0.905;-0.92;-0.91;-0.905;-0.94;-0.945;-0.95;-0.955;-0.95;-0.93;-0.92;-0.89;-0.9;-0.89;-0.905;-0.89;-0.92;-0.92;-0.92;-0.935;-0.935;-0.9;-0.905;-0.885;-0.885;-0.885;-0.875;-0.885;-0.9;-0.905;-0.915;-0.92;-0.925;-0.935;-0.91;-0.92;-0.895;-0.905;-0.91;-0.92;-0.93;-0.94;-0.93;-0.94;-0.935;-0.94;-0.935;-0.945;-0.92;-0.93;-0.945;-0.95;-0.95;-0.955;-0.975;-0.98;-0.98;-0.975;-0.96;-0.965;-0.95;-0.975;-0.97;-0.975;-0.98;-1;-0.995;-0.995;-0.99;-0.98;-0.985;-0.985;-0.995;-0.985;-0.985;-0.985;-1.01;-1;-1.015;-1.03;-1.015;-1.015;-1.015;-0.985;-0.98;-0.98;-1;-0.995;-1.02;-1.025;-1.03;-1.02;-1.025;-1.005;-1;-0.995;-0.97;-0.97;-0.95;-0.93;-0.92;-0.92;-0.915;-0.9;-0.895;-0.875;-0.85;-0.835;-0.795;-0.755;-0.71;-0.695;-0.675;-0.685;-0.705;-0.72;-0.71;-0.71;-0.705;-0.71;-0.72;-0.74;-0.79;-0.835;-0.89;-0.955;-1;-1.035;-1.055;-1.07;-1.07;-1.055;-1.04;-1.035;-1.03;-1.035;-1.055;-1.07;-1.08;-1.095;-1.09;-1.09;-1.07;-1.075;-1.075;-1.07;-1.06;-1.075;-1.085;-1.105;-1.1;-1.1;-1.09;-1.09;-1.08;-1.08;-1.085;-1.105;-1.12;-1.14;-1.155;-1.09;-1;-0.835;-0.6;-0.285;0.075;0.43;0.745;0.99;1.105;1.135;1.05;0.85;0.505;0.01;-0.53;-0.975;-1.205;-1.225;-1.12;-0.96;-0.85;-0.81;-0.845;-0.895;-0.98;-1.035;-1.06;-1.08;-1.07;-1.06;-1.04;-1.045;-1.04;-1.075;-1.08;-1.085;-1.08;-1.085;-1.08;-1.065;-1.08;-1.065;-1.06;-1.08;-1.075;-1.08;-1.095;-1.095;-1.105;-1.1;-1.095;-1.09;-1.07;-1.07;-1.075;-1.065;-1.065;-1.06;-1.08;-1.095;-1.095;-1.105;-1.095;-1.09;-1.09;-1.07;-1.055;-1.05;-1.06;-1.065;-1.07;-1.065;-1.07;-1.06;-1.04;-1.02;-1.03;-1.01;-1.015;-1.01;-1.02;-1;-1;-0.995;-0.995;-0.985;-0.965;-0.95;-0.915;-0.905;-0.895;-0.895;-0.885;-0.875;-0.875;-0.855;-0.835;-0.825;-0.81;-0.8;-0.78;-0.76;-0.745;-0.735;-0.735;-0.715;-0.72;-0.7;-0.705;-0.7;-0.685;-0.665;-0.65;-0.64;-0.605;-0.605;-0.575;-0.585;-0.6;-0.615;-0.63;-0.615;-0.62;-0.63;-0.635;-0.635;-0.645;-0.67;-0.69;-0.725;-0.76;-0.785;-0.82;-0.835;-0.865;-0.88;-0.89;-0.91;-0.915;-0.93;-0.945;-0.96;-0.995;-1;-1.01;-1.035;-1.035;-1.04;-1.035;-1.035;-1.045;-1.03;-1.025;-1.05;-1.06;-1.065;-1.07;-1.075;-1.08;-1.065;-1.065;-1.05;-1.045;-1.04;-1.045;-1.04;-1.065;-1.065;-1.07;-1.065;-1.055;-1.05;-1.045;-1.035;-1.03;-1.035;-1.02;-1.025;-1.03;-1.04;-1.045;-1.035;-1.045;-1.01;-1.005;-1;-0.99;-0.99;-0.995;-0.995;-1.01;-1.015;-1.025;-1.025;-1.03;-1.015;-1.02;-1;-1.005;-0.995;-1;-1.005;-1.01;-1.005;-1.035;-1.035;-1.045;-1.04;-1.015;-1.03;-1.01;-0.995;-1.01;-1.01;-1.02;-1.04;-1.045;-1.06;-1.04;-1.05;-1.04;-1.035;-1.025;-1.025;-1.025;-1.03;-1.035;-1.04;-1.06;-1.075;-1.065;-1.075;-1.06;-1.045;-1.045;-1.05;-1.04;-1.065;-1.05;-1.055;-1.075;-1.085;-1.07;-1.075;-1.055;-1.045;-1.045;-1.05;-1.04;-1.04;-1.045;-1.055;-1.05;-1.055;-1.04;-1.02;-1.005;-0.98;-0.96;-0.95;-0.94;-0.935;-0.93;-0.925;-0.89;-0.865;-0.825;-0.775;-0.735;-0.715;-0.72;-0.73;-0.735;-0.745;-0.755;-0.76;-0.785;-0.815;-0.855;-0.9;-0.96;-0.995;-1.045;-1.065;-1.085;-1.085;-1.095;-1.105;-1.115;-1.125;-1.12;-1.115;-1.095;-1.11;-1.085;-1.1;-1.1;-1.095;-1.105;-1.115;-1.14;-1.14;-1.14;-1.12;-1.1;-1.09;-1.085;-1.075;-1.085;-1.085;-1.115;-1.14;-1.17;-1.185;-1.18;-1.14;-1.03;-0.855;-0.61;-0.295;0.08;0.485;0.815;1.025;1.13;1.095;0.995;0.72;0.325;-0.21;-0.725;-1.105;-1.265;-1.23;-1.11;-0.97;-0.88;-0.865;-0.915;-0.96;-1.01;-1.055;-1.09;-1.07;-1.085;-1.075;-1.095;-1.085;-1.08;-1.1;-1.09;-1.11;-1.105;-1.11;-1.1;-1.105;-1.095;-1.105;-1.115;-1.125;-1.13;-1.14;-1.125;-1.14;-1.135;-1.105;-1.105;-1.09;-1.1;-1.105;-1.115;-1.12;-1.125;-1.125;-1.115;-1.12;-1.09;-1.08;-1.08;-1.075;-1.07;-1.06;-1.08;-1.085;-1.09;-1.08;-1.075;-1.065;-1.045;-1.025;-1.02;-1.01;-1.01;-1;-1.005;-0.995;-0.995;-0.99;-0.98;-0.97;-0.95;-0.945;-0.905;-0.895;-0.895;-0.86;-0.85;-0.855;-0.84;-0.825;-0.795;-0.79;-0.745;-0.735;-0.69;-0.675;-0.67;-0.655;-0.66;-0.645;-0.64;-0.64;-0.615;-0.6;-0.58;-0.555;-0.555;-0.54;-0.53;-0.545;-0.54;-0.55;-0.565;-0.59;-0.61;-0.625;-0.64;-0.64;-0.65;-0.68;-0.73;-0.755;-0.77;-0.81;-0.86;-0.885;-0.905;-0.915;-0.93;-0.945;-0.95;-0.955;-0.97;-0.98;-1.005;-1.015;-1.03;-1.05;-1.04;-1.045;-1.03;-1.03;-1.03;-1.02;-1.02;-1.045;-1.055;-1.055;-1.06;-1.07;-1.065;-1.045;-1.035;-1.025;-1.015;-1.01;-1.02;-1.03;-1.04;-1.035;-1.06;-1.05;-1.03;-1.025;-1.025;-1.01;-1.005;-0.99;-0.995;-1;-1.01;-1.005;-0.995;-1;-1;-1;-0.995;-0.99;-0.99;-0.98;-0.99;-0.99;-1.01;-1.01;-1.015;-1.02;-1.03;-1.035;-1.025;-1.01;-1.005;-1;-1;-1.02;-1.025;-1.03;-1.045;-1.04;-1.055;-1.04;-1.02;-1.02;-1.02;-1.005;-1.03;-1.04;-1.04;-1.05;-1.06;-1.07;-1.065;-1.06;-1.05;-1.035;-1.04;-1.04;-1.035;-1.05;-1.05;-1.075;-1.07;-1.06;-1.065;-1.07;-1.055;-1.05;-1.06;-1.04;-1.045;-1.05;-1.065;-1.07;-1.075;-1.075;-1.08;-1.09;-1.08;-1.065;-1.055;-1.045;-1.04;-1.05;-1.065;-1.065;-1.07;-1.05;-1.04;-1.01;-1;-0.985;-0.965;-0.93;-0.92;-0.92;-0.915;-0.91;-0.91;-0.88;-0.855;-0.835;-0.79;-0.755;-0.725;-0.71;-0.72;-0.74;-0.74;-0.76;-0.77;-0.78;-0.77;-0.8;-0.83;-0.865;-0.915;-0.955;-1.005;-1.055;-1.07;-1.1;-1.11;-1.12;-1.125;-1.09;-1.1;-1.095;-1.095;-1.09;-1.1;-1.095;-1.11;-1.125;-1.125;-1.145;-1.13;-1.125;-1.125;-1.105;-1.1;-1.09;-1.11;-1.105;-1.11;-1.12;-1.125;-1.13;-1.12;-1.12;-1.125;-1.135;-1.165;-1.175;-1.15;-1.105;-0.985;-0.82;-0.58;-0.265;0.11;0.475;0.78;0.965;1.08;1.055;0.885;0.585;0.13;-0.41;-0.865;-1.19;-1.29;-1.215;-1.075;-0.95;-0.87;-0.865;-0.895;-0.97;-1.025;-1.09;-1.11;-1.12;-1.13;-1.125;-1.115;-1.1;-1.09;-1.095;-1.115;-1.13;-1.13;-1.145;-1.14;-1.135;-1.135;-1.125;-1.125;-1.145;-1.12;-1.095;-1.115;-1.11;-1.12;-1.125;-1.13;-1.15;-1.155;-1.15;-1.14;-1.12;-1.13;-1.11;-1.11;-1.125;-1.125;-1.125;-1.145;-1.145;-1.16;-1.145;-1.125;-1.095;-1.1;-1.085;-1.09;-1.09;-1.075;-1.085;-1.09;-1.09;-1.085;-1.11;-1.06;-1.045;-1.045;-1.025;-1.015;-1;-1;-1;-0.995;-0.99;-0.995;-0.975;-0.955;-0.92;-0.91;-0.88;-0.855;-0.86;-0.845;-0.825;-0.82;-0.82;-0.8;-0.78;-0.75;-0.725;-0.715;-0.68;-0.675;-0.67;-0.655;-0.65;-0.65;-0.635;-0.64;-0.625;-0.615;-0.57;-0.56;-0.56;-0.565;-0.59;-0.61;-0.64;-0.65;-0.68;-0.715;-0.725;-0.765;-0.785;-0.815;-0.825;-0.845;-0.885;-0.9;-0.93;-0.955;-0.98;-1;-1.01;-1.015;-1.025;-1.02;-1.025;-1.03;-1.025;-1.04;-1.08;-1.08;-1.09;-1.09;-1.095;-1.08;-1.07;-1.065;-1.055;-1.055;-1.065;-1.08;-1.09;-1.11;-1.09;-1.105;-1.09;-1.07;-1.06;-1.05;-1.045;-1.055;-1.055;-1.055;-1.06;-1.07;-1.05;-1.06;-1.05;-1.04;-1.025;-1.03;-1.01;-1.01;-1.02;-1.035;-1.045;-1.045;-1.04;-1.04;-1.055;-1.045;-1.025;-1.025;-1.02;-1.015;-1.015;-1.025;-1.04;-1.045;-1.055;-1.05;-1.05;-1.04;-1.045;-1.04;-1.02;-1.035;-1.045;-1.06;-1.055;-1.075;-1.065;-1.06;-1.075;-1.05;-1.05;-1.04;-1.03;-1.035;-1.05;-1.06;-1.065;-1.07;-1.075;-1.075;-1.075;-1.06;-1.05;-1.06;-1.065;-1.075;-1.06;-1.07;-1.075;-1.09;-1.1;-1.095;-1.095;-1.085;-1.06;-1.06;-1.035;-1.04;-1.045;-1.055;-1.065;-1.07;-1.07;-1.07;-1.065;-1.06;-1.03;-1.015;-0.99;-0.975;-0.97;-0.98;-0.965;-0.95;-0.935;-0.945;-0.94;-0.9;-0.855;-0.815;-0.77;-0.725;-0.72;-0.72;-0.74;-0.765;-0.78;-0.79;-0.765;-0.77;-0.79;-0.795;-0.83;-0.865;-0.925;-0.985;-1.04;-1.08;-1.09;-1.12;-1.115;-1.1;-1.085;-1.085;-1.095;-1.085;-1.085;-1.085;-1.105;-1.12;-1.13;-1.14;-1.135;-1.135;-1.12;-1.115;-1.11;-1.095;-1.12;-1.11;-1.125;-1.125;-1.125;-1.125;-1.125;-1.12;-1.115;-1.11;-1.125;-1.15;-1.17;-1.21;-1.135;-1.055;-0.91;-0.695;-0.415;-0.06;0.335;0.665;0.925;1.05;1.085;1.01;0.8;0.44;-0.045;-0.58;-1.025;-1.27;-1.305;-1.2;-1.04;-0.915;-0.875;-0.89;-0.96;-1.025;-1.085;-1.13;-1.14;-1.14;-1.12;-1.105;-1.095;-1.105;-1.11;-1.13;-1.135;-1.15;-1.15;-1.16;-1.15;-1.155;-1.14;-1.12;-1.12;-1.115;-1.14;-1.15;-1.16;-1.155;-1.16;-1.16;-1.16;-1.14;-1.135;-1.14;-1.115;-1.11;-1.13;-1.135;-1.15;-1.15;-1.165;-1.165;-1.15;-1.13;-1.115;-1.1;-1.105;-1.105;-1.085;-1.09;-1.095;-1.09;-1.085;-1.095;-1.085;-1.05;-1.045;-1.03;-1.03;-1.025;-1.03;-1.045;-1.055;-1.015;-1.015;-1;-0.98;-0.955;-0.945;-0.925;-0.91;-0.915;-0.9;-0.88;-0.88;-0.855;-0.845;-0.825;-0.81;-0.79;-0.77;-0.75;-0.735;-0.695;-0.69;-0.68;-0.685;-0.67;-0.66;-0.65;-0.625;-0.615;-0.6;-0.585;-0.58;-0.59;-0.605;-0.595;-0.615;-0.64;-0.65;-0.665;-0.7;-0.685;-0.715;-0.74;-0.755;-0.78;-0.8;-0.825;-0.86;-0.885;-0.905;-0.93;-0.95;-0.965;-0.97;-0.99;-0.995;-1.005;-1.01;-1.04;-1.065;-1.075;-1.085;-1.095;-1.095;-1.095;-1.09;-1.085;-1.085;-1.09;-1.1;-1.09;-1.105;-1.105;-1.105;-1.115;-1.11;-1.11;-1.095;-1.1;-1.095;-1.075;-1.09;-1.095;-1.09;-1.09;-1.075;-1.07;-1.07;-1.06;-1.05;-1.035;-1.035;-1.04;-1.04;-1.05;-1.055;-1.04;-1.05;-1.045;-1.04;-1.045;-1.03;-1.015;-0.995;-1;-1;-1.015;-1.03;-1.04;-1.03;-1.04;-1.04;-1.04;-1.035;-1.025;-1.015;-1.01;-1.025;-1.02;-1.04;-1.055;-1.05;-1.05;-1.06;-1.07;-1.055;-1.055;-1.035;-1.04;-1.04;-1.045;-1.055;-1.065;-1.085;-1.07;-1.07;-1.065;-1.05;-1.055;-1.07;-1.07;-1.07;-1.105;-1.095;-1.105;-1.1;-1.12;-1.11;-1.115;-1.1;-1.08;-1.08;-1.065;-1.065;-1.09;-1.08;-1.105;-1.105;-1.1;-1.105;-1.085;-1.075;-1.055;-1.055;-1.03;-1.035;-1.025;-1.03;-1.005;-0.995;-0.975;-0.95;-0.94;-0.915;-0.88;-0.855;-0.835;-0.765;-0.745;-0.735;-0.745;-0.76;-0.78;-0.78;-0.77;-0.765;-0.77;-0.775;-0.805;-0.865;-0.945;-1.005;-1.04;-1.075;-1.11;-1.12;-1.115;-1.12;-1.105;-1.095;-1.105;-1.11;-1.11;-1.12;-1.14;-1.15;-1.155;-1.15;-1.16;-1.145;-1.12;-1.11;-1.125;-1.115;-1.13;-1.125;-1.125;-1.135;-1.135;-1.14;-1.135;-1.13;-1.13;-1.125;-1.145;-1.165;-1.17;-1.145;-1.05;-0.87;-0.64;-0.34;0.04;0.435;0.765;0.99;1.075;1.085;0.965;0.725;0.31;-0.2;-0.75;-1.135;-1.3;-1.29;-1.135;-0.985;-0.89;-0.88;-0.915;-0.975;-1.04;-1.095;-1.12;-1.135;-1.125;-1.115;-1.115;-1.11;-1.1;-1.11;-1.125;-1.135;-1.145;-1.155;-1.155;-1.15;-1.14;-1.12;-1.14;-1.11;-1.11;-1.12;-1.12;-1.14;-1.155;-1.145;-1.135;-1.14;-1.135;-1.12;-1.115;-1.105;-1.12;-1.105;-1.12;-1.115;-1.12;-1.13;-1.13;-1.115;-1.115;-1.105;-1.085;-1.07;-1.075;-1.075;-1.08;-1.085;-1.09;-1.08;-1.1;-1.095;-1.06;-1.035;-1.025;-1.02;-1.015;-1.01;-1.005;-1.005;-1.015;-1.01;-1;-0.98;-0.97;-0.925;-0.915;-0.895;-0.885;-0.86;-0.855;-0.855;-0.845;-0.835;-0.82;-0.8;-0.77;-0.725;-0.73;-0.705;-0.675;-0.66;-0.655;-0.65;-0.645;-0.645;-0.64;-0.61;-0.615;-0.565;-0.55;-0.525;-0.535;-0.51;-0.515;-0.53;-0.545;-0.555;-0.555;-0.57;-0.58;-0.6;-0.615;-0.64;-0.665;-0.695;-0.72;-0.745;-0.795;-0.835;-0.87;-0.885;-0.88;-0.91;-0.925;-0.935;-0.96;-0.97;-0.985;-0.995;-1;-1.02;-1.03;-1.025;-1.025;-1.03;-1.045;-1.02;-1.03;-1.04;-1.04;-1.06;-1.065;-1.065;-1.08;-1.06;-1.055;-1.055;-1.04;-1.03;-1.025;-1.04;-1.045;-1.035;-1.055;-1.06;-1.06;-1.055;-1.05;-1.025;-1.015;-1;-1.015;-1.015;-1.015;-1.02;-1.02;-1.025;-1.015;-1.01;-1.01;-1.01;-0.975;-0.98;-0.985;-0.985;-0.985;-0.99;-1.005;-1.015;-1.025;-1.025;-1.015;-1;-0.995;-0.99;-0.985;-0.99;-1.005;-1.005;-1.015;-1.02;-1.02;-1.02;-1.01;-1.015;-1.015;-1.015;-0.99;-1.005;-1.005;-1.025;-1.035;-1.03;-1.055;-1.05;-1.05;-1.055;-1.045;-1.03;-1.015;-1.03;-1.05;-1.04;-1.05;-1.07;-1.07;-1.09;-1.065;-1.055;-1.06;-1.04;-1.055;-1.06;-1.055;-1.09;-1.105;-1.105;-1.11;-1.095;-1.105;-1.09;-1.08;-1.08;-1.05;-1.07;-1.065;-1.08;-1.085;-1.09;-1.09;-1.095;-1.085;-1.075;-1.065;-1.055;-1.055;-1.045;-1.05;-1.055;-1.06;-1.05;-1.05;-1.03;-1.01;-0.99;-0.955;-0.955;-0.925;-0.91;-0.905;-0.895;-0.885;-0.87;-0.85;-0.81;-0.775;-0.735;-0.715;-0.72;-0.73;-0.735;-0.755;-0.76;-0.775;-0.775;-0.81;-0.84;-0.865;-0.9;-0.935;-0.98;-1.035;-1.065;-1.08;-1.095;-1.105;-1.125;-1.135;-1.125;-1.13;-1.125;-1.11;-1.095;-1.11;-1.115;-1.115;-1.125;-1.135;-1.145;-1.135;-1.13;-1.12;-1.095;-1.1;-1.09;-1.085;-1.08;-1.085;-1.08;-1.09;-1.1;-1.1;-1.1;-1.08;-1.105;-1.125;-1.14;-1.15;-1.1;-0.985;-0.815;-0.585;-0.3;0.065;0.46;0.785;0.995;1.09;1.065;0.935;0.68;0.28;-0.22;-0.735;-1.115;-1.26;-1.25;-1.12;-0.98;-0.875;-0.845;-0.88;-0.94;-1.02;-1.065;-1.125;-1.115;-1.125;-1.12;-1.11;-1.11;-1.1;-1.1;-1.095;-1.1
8;0;-0.775;-0.76;-0.725;-0.715;-0.71;-0.7;-0.675;-0.68;-0.655;-0.64;-0.615;-0.58;-0.545;-0.535;-0.52;-0.53;-0.53;-0.525;-0.525;-0.51;-0.51;-0.5;-0.485;-0.48;-0.475;-0.485;-0.5;-0.515;-0.53;-0.56;-0.59;-0.62;-0.64;-0.675;-0.68;-0.705;-0.72;-0.72;-0.755;-0.78;-0.8;-0.84;-0.885;-0.885;-0.915;-0.925;-0.935;-0.925;-0.915;-0.91;-0.93;-0.935;-0.945;-0.96;-0.96;-0.975;-0.97;-0.98;-0.965;-0.955;-0.955;-0.94;-0.94;-0.94;-0.94;-0.955;-0.965;-0.955;-0.96;-0.96;-0.97;-0.94;-0.955;-0.94;-0.935;-0.945;-0.94;-0.945;-0.96;-0.945;-0.95;-0.94;-0.935;-0.925;-0.91;-0.905;-0.925;-0.92;-0.92;-0.925;-0.925;-0.93;-0.93;-0.95;-0.945;-0.915;-0.905;-0.9;-0.905;-0.91;-0.92;-0.935;-0.92;-0.93;-0.945;-0.945;-0.94;-0.94;-0.92;-0.92;-0.925;-0.925;-0.93;-0.925;-0.94;-0.94;-0.965;-0.965;-0.96;-0.94;-0.94;-0.93;-0.925;-0.95;-0.955;-0.955;-0.965;-0.965;-0.985;-0.99;-0.975;-0.98;-0.95;-0.935;-0.94;-0.935;-0.95;-0.955;-0.965;-0.97;-0.975;-0.97;-0.965;-0.945;-0.94;-0.925;-0.935;-0.945;-0.94;-0.945;-0.96;-0.95;-0.96;-0.975;-0.96;-0.945;-0.95;-0.93;-0.935;-0.935;-0.92;-0.935;-0.945;-0.94;-0.955;-0.945;-0.93;-0.92;-0.905;-0.885;-0.865;-0.85;-0.84;-0.83;-0.825;-0.825;-0.81;-0.8;-0.78;-0.745;-0.705;-0.675;-0.645;-0.61;-0.585;-0.595;-0.62;-0.615;-0.625;-0.635;-0.635;-0.62;-0.625;-0.645;-0.66;-0.72;-0.785;-0.85;-0.89;-0.935;-0.96;-0.965;-0.965;-0.955;-0.95;-0.945;-0.95;-0.955;-0.97;-0.985;-0.99;-1.005;-0.99;-0.98;-0.97;-0.975;-0.97;-0.965;-0.97;-0.98;-0.975;-0.985;-0.975;-0.99;-0.995;-1.01;-0.985;-0.98;-0.975;-0.96;-0.99;-1;-1.02;-1.035;-0.98;-0.88;-0.695;-0.435;-0.1;0.305;0.68;0.99;1.18;1.255;1.235;1.075;0.795;0.365;-0.165;-0.665;-0.995;-1.135;-1.075;-0.925;-0.795;-0.71;-0.7;-0.75;-0.815;-0.885;-0.955;-0.955;-0.98;-0.975;-0.965;-0.955;-0.955;-0.955;-0.96;-0.98;-0.995;-1;-1.005;-1.01;-1.01;-1.01;-0.965;-0.955;-0.96;-0.955;-0.955;-0.97;-0.99;-1.005;-1.005;-0.99;-0.985;-0.975;-0.96;-0.95;-0.96;-0.965;-0.975;-0.97;-0.98;-0.985;-1;-0.97;-0.965;-0.965;-0.945;-0.945;-0.93;-0.925;-0.935;-0.93;-0.945;-0.955;-0.94;-0.945;-0.92;-0.895;-0.89;-0.885;-0.87;-0.885;-0.87;-0.86;-0.88;-0.86;-0.86;-0.86;-0.83;-0.81;-0.785;-0.765;-0.77;-0.765;-0.75;-0.76;-0.735;-0.73;-0.705;-0.695;-0.665;-0.64;-0.62;-0.595;-0.585;-0.565;-0.555;-0.545;-0.55;-0.54;-0.535;-0.515;-0.5;-0.49;-0.46;-0.455;-0.435;-0.415;-0.4;-0.405;-0.425;-0.42;-0.425;-0.41;-0.41;-0.405;-0.415;-0.435;-0.45;-0.48;-0.515;-0.555;-0.59;-0.6;-0.665;-0.69;-0.705;-0.725;-0.74;-0.74;-0.765;-0.78;-0.79;-0.82;-0.835;-0.865;-0.86;-0.87;-0.9;-0.89;-0.895;-0.88;-0.9;-0.885;-0.885;-0.9;-0.915;-0.925;-0.94;-0.92;-0.91;-0.905;-0.89;-0.885;-0.885;-0.88;-0.9;-0.91;-0.905;-0.92;-0.92;-0.9;-0.92;-0.905;-0.91;-0.895;-0.885;-0.88;-0.88;-0.89;-0.895;-0.9;-0.905;-0.905;-0.895;-0.89;-0.87;-0.845;-0.87;-0.865;-0.88;-0.895;-0.89;-0.89;-0.905;-0.895;-0.89;-0.89;-0.88;-0.865;-0.87;-0.855;-0.87;-0.88;-0.885;-0.885;-0.895;-0.89;-0.895;-0.895;-0.88;-0.88;-0.88;-0.875;-0.9;-0.895;-0.91;-0.93;-0.925;-0.925;-0.925;-0.92;-0.915;-0.91;-0.89;-0.91;-0.915;-0.93;-0.93;-0.93;-0.945;-0.945;-0.945;-0.915;-0.92;-0.905;-0.895;-0.92;-0.925;-0.935;-0.93;-0.94;-0.965;-0.95;-0.96;-0.945;-0.925;-0.905;-0.905;-0.91;-0.91;-0.93;-0.94;-0.935;-0.93;-0.92;-0.91;-0.885;-0.865;-0.845;-0.825;-0.825;-0.79;-0.795;-0.785;-0.775;-0.76;-0.735;-0.69;-0.65;-0.605;-0.57;-0.565;-0.575;-0.595;-0.625;-0.635;-0.635;-0.66;-0.655;-0.665;-0.71;-0.75;-0.79;-0.825;-0.88;-0.93;-0.97;-0.995;-1.02;-1.01;-1.005;-0.99;-0.995;-1;-0.995;-0.995;-0.985;-0.995;-0.99;-1.02;-1.03;-1.04;-1.035;-1.01;-1.01;-1;-0.995;-0.995;-0.985;-0.99;-1.025;-1.015;-1;-1.005;-1.015;-1.015;-0.99;-0.99;-0.995;-1;-1.025;-1.07;-1.065;-1.035;-0.945;-0.795;-0.59;-0.305;0.05;0.425;0.785;1.03;1.185;1.235;1.19;1.02;0.71;0.24;-0.315;-0.81;-1.105;-1.215;-1.12;-0.97;-0.835;-0.755;-0.76;-0.82;-0.885;-0.945;-0.985;-1.01;-1.005;-1.005;-0.98;-0.98;-0.995;-1.01;-1.02;-1.03;-1.05;-1.05;-1.04;-1.05;-1.035;-1.025;-1.025;-1.015;-1.015;-1.035;-1.03;-1.055;-1.065;-1.09;-1.07;-1.055;-1.035;-1.02;-1.01;-1.035;-1.01;-1.025;-1.025;-1.04;-1.06;-1.06;-1.05;-1.045;-1.02;-1.01;-1;-1.015;-1.015;-1.02;-1.025;-1.03;-1.02;-1.015;-1.015;-1.02;-0.99;-0.985;-0.97;-0.965;-0.95;-0.95;-0.945;-0.945;-0.935;-0.93;-0.925;-0.915;-0.895;-0.87;-0.86;-0.835;-0.825;-0.805;-0.825;-0.81;-0.79;-0.785;-0.76;-0.735;-0.71;-0.695;-0.67;-0.645;-0.64;-0.62;-0.615;-0.605;-0.6;-0.58;-0.56;-0.53;-0.53;-0.52;-0.495;-0.5;-0.49;-0.505;-0.5;-0.5;-0.52;-0.53;-0.545;-0.555;-0.565;-0.57;-0.595;-0.61;-0.64;-0.695;-0.72;-0.76;-0.785;-0.805;-0.83;-0.86;-0.885;-0.885;-0.9;-0.89;-0.91;-0.925;-0.955;-0.955;-0.975;-0.985;-0.98;-0.995;-0.995;-0.975;-0.98;-0.975;-0.98;-0.985;-0.99;-1.01;-1.02;-1.02;-1.02;-1.02;-1;-0.97;-0.965;-0.96;-0.965;-0.96;-0.965;-0.97;-0.97;-0.99;-0.97;-0.97;-0.95;-0.94;-0.94;-0.915;-0.93;-0.945;-0.95;-0.94;-0.94;-0.965;-0.95;-0.935;-0.93;-0.92;-0.91;-0.91;-0.92;-0.935;-0.93;-0.945;-0.95;-0.95;-0.955;-0.96;-0.95;-0.925;-0.925;-0.93;-0.93;-0.945;-0.95;-0.96;-0.965;-0.97;-0.985;-0.985;-0.96;-0.945;-0.955;-0.945;-0.965;-0.965;-0.96;-0.975;-0.99;-0.985;-0.975;-0.98;-0.98;-0.965;-0.975;-0.955;-0.96;-0.97;-0.98;-0.98;-0.99;-0.995;-0.985;-0.99;-0.98;-0.97;-0.955;-0.96;-0.96;-0.965;-0.985;-0.985;-0.985;-0.99;-1.005;-0.995;-0.98;-0.985;-0.98;-0.955;-0.95;-0.935;-0.97;-0.965;-0.945;-0.935;-0.92;-0.905;-0.885;-0.87;-0.83;-0.81;-0.815;-0.795;-0.775;-0.75;-0.715;-0.69;-0.66;-0.645;-0.63;-0.63;-0.655;-0.645;-0.645;-0.645;-0.655;-0.695;-0.725;-0.765;-0.825;-0.88;-0.91;-0.955;-0.975;-0.965;-0.97;-0.99;-0.985;-0.985;-1.01;-1;-1.015;-1.005;-0.995;-0.99;-0.985;-0.99;-0.98;-0.995;-0.995;-1.01;-1.035;-1.035;-1.04;-1.035;-1.015;-0.995;-0.97;-0.965;-0.975;-0.965;-0.99;-1.025;-1.05;-1.07;-1.105;-1.08;-1.025;-0.925;-0.77;-0.545;-0.25;0.12;0.525;0.875;1.13;1.265;1.285;1.18;0.95;0.56;0.05;-0.485;-0.91;-1.125;-1.125;-1;-0.87;-0.77;-0.74;-0.75;-0.805;-0.86;-0.925;-0.95;-0.965;-0.965;-0.985;-0.99;-0.99;-0.985;-0.98;-0.98;-0.965;-0.98;-0.975;-0.965;-0.97;-0.995;-1;-1.015;-1.025;-1.015;-1.015;-1.015;-1.005;-1.005;-0.995;-0.99;-0.98;-0.99;-0.985;-1.01;-1.025;-1.025;-1.02;-1.015;-1.005;-0.995;-0.995;-0.995;-1;-1;-1;-1.01;-1.015;-1.01;-1;-1;-0.98;-0.965;-0.955;-0.94;-0.925;-0.93;-0.915;-0.94;-0.93;-0.925;-0.925;-0.91;-0.885;-0.89;-0.875;-0.86;-0.83;-0.845;-0.835;-0.815;-0.805;-0.79;-0.78;-0.77;-0.75;-0.725;-0.69;-0.645;-0.625;-0.61;-0.59;-0.585;-0.575;-0.56;-0.565;-0.525;-0.495;-0.47;-0.46;-0.445;-0.435;-0.43;-0.42;-0.425;-0.43;-0.42;-0.42;-0.415;-0.415;-0.41;-0.41;-0.415;-0.465;-0.49;-0.525;-0.57;-0.59;-0.605;-0.65;-0.695;-0.67;-0.705;-0.71;-0.73;-0.745;-0.78;-0.805;-0.815;-0.84;-0.865;-0.885;-0.89;-0.885;-0.885;-0.89;-0.885;-0.89;-0.9;-0.915;-0.92;-0.95;-0.945;-0.955;-0.96;-0.94;-0.93;-0.92;-0.905;-0.92;-0.94;-0.925;-0.925;-0.915;-0.925;-0.925;-0.93;-0.915;-0.895;-0.89;-0.89;-0.89;-0.89;-0.895;-0.895;-0.9;-0.91;-0.915;-0.905;-0.895;-0.89;-0.875;-0.87;-0.865;-0.9;-0.88;-0.89;-0.905;-0.91;-0.9;-0.89;-0.885;-0.885;-0.875;-0.86;-0.885;-0.885;-0.88;-0.905;-0.905;-0.91;-0.905;-0.915;-0.895;-0.9;-0.885;-0.905;-0.895;-0.895;-0.91;-0.92;-0.935;-0.945;-0.935;-0.935;-0.93;-0.93;-0.915;-0.915;-0.91;-0.92;-0.925;-0.935;-0.935;-0.955;-0.945;-0.945;-0.93;-0.925;-0.91;-0.91;-0.915;-0.925;-0.915;-0.935;-0.94;-0.935;-0.96;-0.96;-0.945;-0.93;-0.915;-0.915;-0.91;-0.925;-0.92;-0.935;-0.95;-0.945;-0.965;-0.94;-0.935;-0.925;-0.93;-0.9;-0.88;-0.87;-0.855;-0.85;-0.835;-0.815;-0.815;-0.8;-0.79;-0.755;-0.735;-0.69;-0.66;-0.635;-0.595;-0.585;-0.59;-0.625;-0.64;-0.65;-0.645;-0.66;-0.62;-0.635;-0.665;-0.72;-0.795;-0.865;-0.915;-0.96;-0.985;-1;-0.99;-0.98;-0.96;-0.96;-0.96;-0.975;-0.98;-0.99;-1.005;-1.02;-1.03;-1.01;-1.01;-0.98;-0.975;-0.975;-0.98;-0.995;-0.995;-1.015;-1.015;-1.015;-1.02;-1.015;-0.995;-1;-0.99;-1;-1.035;-1.04;-1.035;-0.985;-0.855;-0.685;-0.435;-0.11;0.255;0.625;0.92;1.125;1.205;1.195;1.085;0.855;0.51;0.03;-0.49;-0.89;-1.1;-1.125;-1.01;-0.87;-0.775;-0.73;-0.75;-0.835;-0.89;-0.945;-0.985;-1.01;-1;-1;-0.975;-0.965;-0.96;-0.985;-0.995;-1.01;-1.02;-1.035;-1.04;-1.04;-1.04;-1.02;-1;-0.99;-1;-1.005;-1.02;-1.045;-1.045;-1.04;-1.04;-1.055;-1.03;-1.04;-1.025;-1.02;-1.025;-1.01;-1.01;-1.03;-1.03;-1.02;-1.035;-1.02;-1.025;-1.025;-0.995;-0.995;-0.995;-0.98;-0.995;-1;-1.005;-1.01;-1.015;-1.015;-0.99;-0.965;-0.96;-0.93;-0.94;-0.93;-0.925;-0.935;-0.935;-0.91;-0.93;-0.91;-0.895;-0.875;-0.85;-0.845;-0.84;-0.82;-0.815;-0.81;-0.8;-0.8;-0.79;-0.76;-0.745;-0.72;-0.69;-0.68;-0.66;-0.655;-0.655;-0.64;-0.655;-0.625;-0.605;-0.595;-0.575;-0.54;-0.51;-0.485;-0.495;-0.49;-0.475;-0.49;-0.48;-0.495;-0.49;-0.47;-0.49;-0.475;-0.495;-0.49;-0.51;-0.52;-0.55;-0.59;-0.61;-0.65;-0.675;-0.715;-0.735;-0.735;-0.77;-0.78;-0.805;-0.815;-0.83;-0.865;-0.885;-0.895;-0.91;-0.91;-0.925;-0.92;-0.935;-0.92;-0.935;-0.945;-0.955;-0.97;-0.97;-0.975;-0.97;-0.98;-0.985;-0.985;-0.975;-0.955;-0.965;-0.955;-0.955;-0.97;-0.98;-0.975;-0.975;-0.985;-0.96;-0.945;-0.955;-0.94;-0.94;-0.94;-0.945;-0.945;-0.955;-0.95;-0.955;-0.95;-0.95;-0.955;-0.955;-0.94;-0.93;-0.925;-0.925;-0.935;-0.95;-0.93;-0.95;-0.94;-0.945;-0.935;-0.93;-0.915;-0.93;-0.915;-0.925;-0.93;-0.94;-0.945;-0.945;-0.96;-0.945;-0.95;-0.945;-0.935;-0.945;-0.965;-0.965;-0.96;-0.98;-0.985;-0.985;-0.97;-0.96;-0.94;-0.935;-0.94;-0.94;-0.965;-0.955;-0.96;-0.975;-0.97;-0.985;-0.98;-0.975;-0.975;-0.97;-0.97;-0.96;-0.975;-0.98;-0.965;-0.97;-0.97;-0.99;-0.985;-0.98;-0.975;-0.97;-0.965;-0.97;-0.975;-0.965;-0.97;-0.97;-0.955;-0.975;-0.965;-0.95;-0.935;-0.925;-0.905;-0.88;-0.885;-0.88;-0.865;-0.855;-0.855;-0.845;-0.845;-0.81;-0.79;-0.73;-0.69;-0.65;-0.645;-0.65;-0.655;-0.69;-0.705;-0.695;-0.705;-0.7;-0.69;-0.705;-0.74;-0.785;-0.845;-0.9;-0.96;-0.99;-1.005;-1.02;-1.01;-1.015;-1.005;-1;-1;-1.005;-1.005;-1.025;-1.04;-1.045;-1.045;-1.06;-1.055;-1.055;-1.045;-1.045;-1.025;-1.015;-1.015;-1.025;-1.025;-1.05;-1.045;-1.055;-1.04;-1.045;-1.025;-1.035;-1.02;-1.01;-1.065;-1.095;-1.11;-1.09;-1.01;-0.86;-0.62;-0.31;0.075;0.485;0.83;1.075;1.15;1.125;0.94;0.585;0.075;-0.525;-0.985;-1.215;-1.225;-1.095;-0.94;-0.835;-0.8;-0.815;-0.895;-0.955;-1.015;-1.055;-1.075;-1.055;-1.035;-1;-0.995;-0.99;-0.99;-1.025;-1.04;-1.035;-1.045;-1.05;-1.06;-1.05;-1.035;-1.04;-1.025;-1.035;-1.03;-1.035;-1.045;-1.055;-1.07;-1.055;-1.05;-1.04;-1.045;-1.035;-1.02;-1.02;-1.02;-1.01;-1.04;-1.045;-1.05;-1.06;-1.045;-1.05;-1.01;-1.005;-0.995;-0.995;-0.995;-0.985;-1.015;-1;-1;-0.995;-0.99;-0.97;-0.945;-0.945;-0.935;-0.93;-0.915;-0.915;-0.915;-0.92;-0.905;-0.905;-0.905;-0.88;-0.84;-0.83;-0.805;-0.785;-0.79;-0.78;-0.77;-0.745;-0.73;-0.715;-0.705;-0.675;-0.655;-0.62;-0.6;-0.575;-0.555;-0.555;-0.55;-0.55;-0.57;-0.565;-0.54;-0.51;-0.5;-0.485;-0.47;-0.465;-0.475;-0.465;-0.515;-0.51;-0.55;-0.56;-0.58;-0.62;-0.615;-0.635;-0.645;-0.68;-0.705;-0.73;-0.77;-0.785;-0.815;-0.86;-0.865;-0.875;-0.89;-0.905;-0.915;-0.925;-0.935;-0.945;-0.97;-0.98;-0.98;-0.995;-0.995;-0.99;-0.985;-0.98;-0.97;-0.975;-0.98;-0.985;-1;-1.005;-1.005;-1.02;-1.015;-0.995;-0.99;-0.995;-0.97;-0.98;-0.99;-0.975;-1;-0.99;-0.99;-0.995;-0.975;-0.98;-0.965;-0.96;-0.955;-0.97;-0.965;-0.955;-0.97;-0.975;-0.97;-0.975;-0.98;-0.98;-0.96;-0.96;-0.955;-0.955;-0.945;-0.96;-0.97;-0.975;-0.98;-0.99;-0.98;-0.985;-0.975;-0.98;-0.98;-0.975;-0.975;-0.995;-0.995;-0.995;-1.005;-1.01;-1.015;-0.995;-1.005;-1;-0.99;-0.99;-0.99;-0.985;-1.025;-1.035;-1.015;-1.025;-1.03;-1.025;-1.02;-1.005;-1.005;-0.99;-0.995;-1;-1.015;-1.03;-1.035;-1.045;-1.045;-1.025;-1.03;-1.025;-1.02;-1.015;-1.015;-1.015;-1.01;-1.015;-1.025;-1.035;-1.04;-1.03;-1;-0.985;-0.96;-0.935;-0.935;-0.9;-0.9;-0.9;-0.885;-0.875;-0.865;-0.835;-0.81;-0.755;-0.725;-0.69;-0.685;-0.69;-0.71;-0.74;-0.76;-0.75;-0.765;-0.74;-0.76;-0.77;-0.795;-0.85;-0.885;-0.945;-0.99;-1.025;-1.055;-1.08;-1.065;-1.065;-1.055;-1.055;-1.05;-1.04;-1.055;-1.065;-1.105;-1.1;-1.085;-1.11;-1.1;-1.1;-1.09;-1.075;-1.07;-1.065;-1.07;-1.065;-1.07;-1.08;-1.09;-1.095;-1.08;-1.095;-1.085;-1.08;-1.09;-1.1;-1.14;-1.14;-1.105;-1.01;-0.87;-0.645;-0.365;0;0.385;0.725;0.985;1.14;1.17;1.11;0.94;0.64;0.21;-0.325;-0.805;-1.11;-1.225;-1.165;-1.04;-0.895;-0.825;-0.82;-0.865;-0.93;-1;-1.065;-1.095;-1.085;-1.085;-1.09;-1.065;-1.065;-1.07;-1.08;-1.095;-1.115;-1.115;-1.125;-1.135;-1.085;-1.1;-1.085;-1.085;-1.1;-1.1;-1.095;-1.12;-1.12;-1.125;-1.125;-1.11;-1.135;-1.12;-1.11;-1.085;-1.09;-1.105;-1.105;-1.095;-1.1;-1.115;-1.105;-1.11;-1.1;-1.095;-1.085;-1.08;-1.08;-1.08;-1.095;-1.09;-1.08;-1.085;-1.075;-1.075;-1.07;-1.055;-1.04;-1.02;-1.01;-1;-1;-0.995;-1.005;-1;-0.99;-0.975;-0.965;-0.925;-0.9;-0.88;-0.865;-0.86;-0.85;-0.83;-0.82;-0.805;-0.795;-0.785;-0.76;-0.735;-0.71;-0.675;-0.65;-0.635;-0.635;-0.625;-0.6;-0.6;-0.6;-0.575;-0.575;-0.54;-0.52;-0.5;-0.49;-0.495;-0.5;-0.51;-0.55;-0.565;-0.58;-0.605;-0.625;-0.645;-0.655;-0.69;-0.7;-0.74;-0.785;-0.805;-0.84;-0.88;-0.905;-0.91;-0.925;-0.93;-0.955;-0.965;-0.96;-0.98;-0.99;-1;-1.015;-1.025;-1.05;-1.05;-1.04;-1.05;-1.03;-1.035;-1.025;-1.02;-1.035;-1.05;-1.04;-1.05;-1.05;-1.06;-1.045;-1.045;-1.025;-1.02;-1.015;-1;-0.995;-1.02;-1.025;-1.02;-1.03;-1.015;-1.04;-1.015;-1.01;-0.995;-1;-0.995;-0.995;-1.015;-1.005;-1.03;-1.03;-1.02;-1.02;-1;-1;-0.985;-0.995;-0.985;-0.99;-1;-1.03;-1.025;-1.025;-1.035;-1.035;-1.01;-1.025;-1.015;-1;-1.015;-1.015;-1.025;-1.04;-1.04;-1.065;-1.045;-1.04;-1.045;-1.025;-1.03;-1.04;-1.03;-1.03;-1.04;-1.07;-1.075;-1.065;-1.06;-1.055;-1.055;-1.045;-1.05;-1.045;-1.045;-1.055;-1.06;-1.05;-1.06;-1.06;-1.07;-1.06;-1.065;-1.065;-1.04;-1.05;-1.07;-1.065;-1.07;-1.06;-1.06;-1.055;-1.07;-1.065;-1.05;-1.03;-1.015;-0.98;-0.975;-0.95;-0.93;-0.92;-0.925;-0.91;-0.91;-0.875;-0.855;-0.805;-0.775;-0.73;-0.695;-0.68;-0.685;-0.705;-0.73;-0.735;-0.74;-0.735;-0.73;-0.745;-0.78;-0.815;-0.855;-0.915;-0.98;-1.025;-1.04;-1.055;-1.065;-1.08;-1.065;-1.055;-1.045;-1.05;-1.05;-1.05;-1.065;-1.07;-1.1;-1.095;-1.1;-1.1;-1.1;-1.07;-1.05;-1.075;-1.06;-1.06;-1.065;-1.075;-1.07;-1.07;-1.075;-1.065;-1.07;-1.08;-1.12;-1.13;-1.155;-1.11;-1.02;-0.885;-0.685;-0.395;-0.03;0.36;0.735;0.985;1.15;1.205;1.14;0.975;0.695;0.28;-0.235;-0.71;-1.065;-1.225
